0,142.1485817
1,125.2290543
2,113.0764303
3,104.9634148
4,100.1627434
5,97.94718217
6,99.02763814
7,96.99853269
8,98.61044563
9,97.32492484
10,99.28183236
11,97.84011595
12,99.79234764
13,99.9030843
14,101.7247857
15,101.4905145
16,104.1700278
17,104.0336503
18,106.3541482
19,105.8937895
20,107.1443649
21,106.9310699
22,108.0254497
23,107.8307943
24,107.4962734
25,108.003241
26,108.9484376
27,109.2339324
28,108.7968592
29,109.1895862
30,108.9319497
31,109.6673519
32,109.4097087
33,110.0938042
34,108.7522616
35,110.2964884
36,109.3115981
37,110.7812333
38,109.1156417
39,111.0374797
40,109.9500066
41,111.7925838
42,110.6281691
43,111.9346069
44,109.4345227
45,110.8248772
46,108.4879334
47,109.3491369
48,106.7604774
49,107.6612861
50,105.9304081
51,107.6121244
52,106.0047749
53,110.4603799
54,109.6758692
55,113.0708291
56,112.0066181
57,111.8235074
58,110.0832644
59,107.7509466
60,106.6494299
61,102.6061374
62,85.38104841
63,78.61518458
64,116.83296
65,162.4120602
66,189.881599
67,205.0783989
68,208.6505006
69,194.4416847
70,171.4659893
71,128.0893506
72,79.64279279
73,52.1332739
74,71.95944504
75,78.9580677
76,80.76790529
77,81.68729767
78,85.80013765
79,84.63093085
80,88.72978714
81,88.11535274
82,94.0347285
83,95.87716613
84,104.4165609
85,109.0771986
86,119.4277745
87,126.1559715
88,134.8049416
89,138.332662
90,139.2893037
91,134.1387032
92,126.8342604
93,115.9423813
94,105.3861923
95,95.2658825
96,88.47659357
97,84.39823881
98,82.31753088
99,82.65408648
100,81.82749177
101,82.09644428
102,82.34674723
103,83.43853855
104,83.55129212
105,85.54050722
106,85.80944311
107,87.69144331
108,87.57109033
109,89.28755653
110,89.0296847
111,89.77177902
112,90.09431436
113,91.07651434
114,91.41536994
115,93.72388774
116,93.7363817
117,95.08685453
118,95.43735454
119,96.67359342
120,96.05439075
121,96.24634198
122,95.07467294
123,96.42747567
124,95.98306439
125,96.7857201
126,96.60936858
127,96.80133038
128,97.63894927
129,97.49289173
130,97.4913316
131,97.16579354
132,98.35770821
133,98.8573283
134,99.45951465
135,99.36705656
136,101.4424113
137,100.0515762
138,102.2457903
139,100.0834031
140,101.6086347
141,99.50913763
142,102.087982
143,98.22392135
144,101.5766543
145,101.2370621
146,104.307745
147,102.8935612
148,104.614567
149,100.7877789
150,100.4341931
151,96.85449923
152,96.46361428
153,77.40140033
154,64.31351776
155,91.3631746
156,139.1727463
157,166.2084195
158,184.3256628
159,185.995332
160,177.417958
161,154.7916
162,119.1465925
163,67.20321127
164,34.09667975
165,45.18591518
166,58.28915484
167,55.64648054
168,57.4513432
169,58.25617201
170,58.79064228
171,59.31809019
172,60.41432139
173,61.08165522
174,64.01235243
175,67.47685979
176,72.8248172
177,79.14713652
178,86.27597107
179,93.52601812
180,96.19564803
181,96.43403071
182,91.10829265
183,82.09959837
184,70.72023427
185,58.50175552
186,46.7844026
187,36.94116134
188,30.69236866
189,26.38058438
190,25.43479409
191,24.09971825
192,22.25881023
193,21.43190646
194,20.60963803
195,20.92023982
196,19.11661098
197,18.49712189
198,18.70514413
199,19.25117573
200,21.01162052
201,21.44808738
202,21.77496228
203,22.65896277
204,23.71544529
205,24.57612371
206,24.43447946
207,25.37675524
208,26.55444028
209,27.13770062
210,26.90046203
211,28.45811147
212,29.40967848
213,30.24234569
214,31.08434796
215,32.62797654
216,33.88955834
217,34.54273837
218,35.93251787
219,35.57171421
220,36.26217676
221,37.89669727
222,38.66875717
223,40.50606034
224,42.53916096
225,43.78905513
226,44.52847846
227,45.18861379
228,46.90468451
229,46.93312985
230,47.91027181
231,48.66362505
232,49.47993273
233,51.47339162
234,53.72093655
235,56.62579627
236,59.49571004
237,62.05559241
238,63.98839626
239,64.49233327
240,63.67226182
241,63.33933915
242,64.43997639
243,57.09307002
244,40.44315129
245,44.68132128
246,98.81923771
247,137.6354955
248,162.5007002
249,175.4987752
250,173.7555748
251,159.4342766
252,131.4020376
253,85.64018097
254,39.39812696
255,28.93231474
256,55.62265765
257,56.97034587
258,59.58841651
259,63.31372259
260,65.94811348
261,69.10230696
262,72.2821624
263,76.38739904
264,81.02409598
265,86.44402323
266,94.58422304
267,103.5635919
268,112.4240609
269,120.6714896
270,127.0284424
271,130.1522987
272,128.7400494
273,123.5165785
274,113.9970837
275,103.8878335
276,94.25178545
277,85.7415886
278,80.43417773
279,77.62328453
280,76.93128449
281,77.46770521
282,78.25119291
283,78.9904268
284,79.44523354
285,81.07722202
286,81.61594545
287,82.6861597
288,84.03838356
289,84.97803697
290,86.12050687
291,86.64755597
292,87.5918686
293,88.30308464
294,88.85111986
295,90.06580826
296,90.04041154
297,90.59774466
298,90.92896971
299,91.40240336
300,91.60541742
301,92.11845624
302,92.5359412
303,93.02098875
304,93.37318996
305,94.36174039
306,94.74890809
307,95.38778146
308,95.84952748
309,96.60964054
310,96.77764823
311,97.14615308
312,97.38641975
313,97.76190648
314,97.97421239
315,97.98137582
316,98.85099321
317,98.93041562
318,99.01917309
319,99.34102049
320,99.73509968
321,100.0685982
322,101.073419
323,101.6027116
324,101.6890993
325,102.1367812
326,104.1695734
327,103.7524416
328,105.1977942
329,107.4823159
330,109.7831307
331,111.4475896
332,112.2146147
333,112.2030721
334,111.3826882
335,110.4340662
336,111.0682045
337,98.41095768
338,82.49732935
339,95.05220355
340,151.4905278
341,185.2784886
342,207.8147066
343,217.362579
344,212.5095081
345,193.5095833
346,161.2042963
347,111.5260201
348,69.38158463
349,67.30004254
350,92.14626202
351,89.03443985
352,92.23963095
353,94.89934754
354,97.28400587
355,99.1115625
356,101.8831466
357,104.4006685
358,108.2678269
359,113.5918912
360,120.5313087
361,128.6851698
362,138.1746905
363,146.794762
364,153.4241381
365,156.2539808
366,155.3099555
367,148.3239346
368,139.4521378
369,128.2679901
370,118.0908277
371,109.1350975
372,104.2073486
373,100.4987126
374,99.11639774
375,100.0347998
376,101.0091067
377,101.498608
378,103.0719988
379,103.3633429
380,104.3026939
381,104.8014898
382,105.7944535
383,106.2699273
384,106.2745116
385,107.7173554
386,108.6403596
387,109.5564024
388,110.7334892
389,110.4933059
390,111.3277347
391,110.7052816
392,111.4814457
393,111.4160843
394,111.1339532
395,112.4974792
396,113.9006747
397,113.9518466
398,113.436609
399,112.942303
400,112.904903
401,112.1752084
402,113.6692653
403,113.776356
404,114.9137778
405,115.9066651
406,118.1512886
407,118.0019878
408,117.803703
409,118.2184825
410,117.2672919
411,118.3743865
412,119.3416158
413,119.3274574
414,118.7072777
415,118.5882238
416,120.1614883
417,120.312844
418,122.5504391
419,124.8952696
420,125.1281888
421,126.5685632
422,126.0206225
423,124.241874
424,121.2020444
425,120.642436
426,114.782104
427,97.59309448
428,93.51128984
429,136.6882404
430,178.030715
431,202.2496206
432,216.7458972
433,216.5312329
434,204.0718144
435,179.5121422
436,139.2788217
437,92.28091054
438,73.49048503
439,94.66740238
440,100.501665
441,99.2333548
442,102.0116416
443,104.0090718
444,105.9995101
445,108.4934241
446,110.6400142
447,113.7586164
448,119.0171079
449,124.7813944
450,131.0468677
451,139.3752649
452,146.5171659
453,156.6287597
454,158.5981687
455,157.8193444
456,151.5346574
457,143.0192236
458,131.4408288
459,119.7855264
460,108.2793906
461,100.3909577
462,95.85219193
463,96.99173704
464,94.71868118
465,96.35471012
466,97.54554531
467,98.08833641
468,99.42134635
469,99.99675409
470,99.59083527
471,100.1196055
472,100.4292867
473,101.6317564
474,102.3982791
475,102.0809056
476,101.8637791
477,101.5184144
478,102.601971
479,102.4081194
480,103.7923895
481,102.9994713
482,102.7916327
483,103.1105852
484,102.3106684
485,100.0678467
486,99.87397189
487,99.79899022
488,100.3510499
489,101.9707027
490,103.7674762
491,102.7227852
492,104.4729517
493,104.6030893
494,104.1737447
495,103.9588744
496,104.5225652
497,104.6573281
498,105.4307901
499,105.8522591
500,106.187482
501,107.872372
502,108.7949907
503,110.472855
504,110.0551654
505,108.5092682
506,107.8444712
507,106.8626543
508,107.0696463
509,92.08547286
510,77.27848116
511,95.61601739
512,149.669157
513,181.9390596
514,202.1343739
515,208.241123
516,202.2732532
517,183.5151884
518,149.6405737
519,100.0829417
520,63.54166385
521,66.00966
522,90.85530787
523,86.44921291
524,90.67244812
525,92.04024177
526,92.88352649
527,93.32357912
528,96.11558766
529,97.51132212
530,100.3056434
531,105.0486917
532,111.8640024
533,119.3925971
534,128.0750276
535,135.2329797
536,140.5447675
537,140.7679901
538,139.0424788
539,127.6689539
540,117.6054233
541,105.5722239
542,93.52501352
543,86.35194535
544,78.68470272
545,77.20626902
546,76.2149841
547,74.89505205
548,75.67298655
549,75.10362769
550,76.89556312
551,76.40078257
552,77.35820818
553,78.45784237
554,79.71830088
555,80.24914181
556,80.1506154
557,80.99614694
558,79.91626013
559,80.50769567
560,81.44412911
561,80.71387222
562,82.41717524
563,81.2929908
564,84.22474175
565,83.18679335
566,83.63834357
567,84.77055452
568,83.56243013
569,84.17247868
570,85.64968089
571,85.47185048
572,85.85111513
573,85.49844287
574,87.74485786
575,89.00057739
576,90.77378017
577,96.8196847
578,97.99617063
579,98.78099063
580,99.67539594
581,97.94974177
582,95.90941752
583,94.44950378
584,93.16906058
585,77.70914019
586,62.06736222
587,92.43028064
588,142.2104321
589,173.5197245
590,190.162357
591,195.4623044
592,187.9114489
593,165.894373
594,131.4344227
595,81.21687016
596,46.83149817
597,59.76082012
598,77.59220784
599,75.75693575
600,77.03356829
601,79.40809789
602,81.37933438
603,82.40186759
604,87.20061208
605,90.48186668
606,91.96358792
607,98.25884343
608,104.9363588
609,112.1570227
610,121.3263833
611,126.54701
612,131.4249821
613,132.1700772
614,127.4792865
615,118.522776
616,105.9485253
617,95.60736449
618,85.48998579
619,77.58937013
620,73.33447258
621,69.76020525
622,70.51457839
623,70.5347258
624,71.52920461
625,71.93160855
626,73.3130436
627,74.86696068
628,75.27170451
629,76.94448091
630,77.18835994
631,77.48585503
632,79.55492272
633,80.17873563
634,81.48555913
635,79.44502823
636,82.30662414
637,80.05163957
638,79.22322639
639,79.92398469
640,78.24009611
641,79.64244689
642,79.39443423
643,80.19072977
644,79.88677175
645,79.07002354
646,81.64252371
647,80.70220317
648,85.93436467
649,88.70033632
650,90.96746431
651,92.52362096
652,90.52035657
653,89.03222556
654,85.70491888
655,84.96739158
656,77.59811658
657,59.69273595
658,61.15331881
659,112.0567694
660,152.4917109
661,175.5210399
662,187.5760003
663,185.4934147
664,170.6975689
665,143.7432115
666,98.66995426
667,52.68528625
668,38.57006073
669,63.69027499
670,66.05056772
671,65.13580219
672,68.44948793
673,70.73985491
674,72.60364387
675,75.48607574
676,78.56195521
677,83.68681208
678,88.88390073
679,95.56584934
680,103.8445353
681,112.6617007
682,121.1221733
683,127.1560983
684,128.1597161
685,124.230927
686,116.4349776
687,104.8231984
688,92.98531123
689,81.89333134
690,73.22792284
691,68.9005237
692,67.44723624
693,67.70720228
694,68.3425007
695,69.4323246
696,70.9114274
697,70.87300979
698,72.23555932
699,71.83351812
700,71.97462546
701,71.86862864
702,73.45723909
703,74.85941433
704,75.38741023
705,76.82220212
706,78.49240328
707,79.49359477
708,80.61136009
709,79.99950782
710,79.83751185
711,79.11145616
712,79.63710614
713,79.92035166
714,79.21290173
715,79.61967576
716,79.58821405
717,80.79451147
718,81.12202139
719,81.8877604
720,82.23854858
721,82.85978022
722,83.77934837
723,84.37954675
724,85.09164976
725,84.14176214
726,84.3177257
727,86.73144838
728,86.63235035
729,88.87123118
730,88.78146489
731,90.12757784
732,91.04476291
733,90.37222298
734,89.91879593
735,87.69378963
736,87.65994212
737,88.72399167
738,88.6295296
739,92.96859693
740,95.30769144
741,97.16194987
742,98.65719619
743,98.48813254
744,97.07895327
745,94.29214616
746,93.08111087
747,87.01222314
748,68.94571246
749,62.90947189
750,110.4373454
751,153.9139156
752,181.5979714
753,196.6013599
754,196.5930568
755,183.3680146
756,156.6813906
757,112.134656
758,60.96551195
759,38.20200426
760,62.27293538
761,67.20870083
762,66.47078742
763,69.02193319
764,70.57307563
765,73.39923916
766,75.81051289
767,77.45954576
768,80.81252427
769,84.51050068
770,89.95438441
771,95.98099798
772,103.3386324
773,111.5540821
774,118.8837252
775,124.6096358
776,125.2306541
777,121.6791838
778,114.5706117
779,104.4713442
780,93.76367494
781,83.47558852
782,76.44622681
783,72.35628438
784,70.82807568
785,71.4700602
786,71.52460853
787,72.63512278
788,73.95306168
789,74.91436884
790,74.93859992
791,75.77868462
792,76.93578259
793,77.55442509
794,78.66723541
795,79.91755461
796,81.04433534
797,82.04989692
798,83.01584336
799,83.75565122
800,83.99200727
801,84.95324404
802,85.13130487
803,85.74991414
804,86.43843585
805,87.2504894
806,89.07654719
807,89.41074985
808,90.04331956
809,91.06284882
810,92.19657155
811,93.48413006
812,94.86027777
813,95.74225102
814,96.64054785
815,97.43160259
816,97.83804097
817,97.49386567
818,97.08679032
819,96.57479222
820,96.37983791
821,96.27109243
822,97.12740101
823,97.63171651
824,98.39707606
825,98.56340274
826,98.91853835
827,98.92631957
828,99.26979082
829,100.0957417
830,100.7981845
831,101.4260086
832,104.8999902
833,107.3157105
834,108.5286076
835,109.4711157
836,109.3017124
837,107.293164
838,105.4174858
839,104.4881849
840,98.68940439
841,81.03515177
842,74.96365951
843,120.950422
844,164.6388108
845,192.6255666
846,208.7079001
847,209.536141
848,196.802611
849,170.425706
850,127.9159548
851,77.30363057
852,54.48851376
853,77.01137581
854,81.36638785
855,81.55589974
856,84.69648863
857,85.76013939
858,87.90069111
859,89.97599294
860,92.77388665
861,96.16152924
862,100.6913499
863,106.6267458
864,112.487584
865,120.5628659
866,128.3607397
867,134.6527813
868,138.1942397
869,136.9827957
870,131.3936932
871,122.2591774
872,111.297113
873,99.97841685
874,89.89281067
875,83.39463402
876,79.23910542
877,77.62669484
878,76.55505241
879,76.0149008
880,75.63325417
881,75.05113425
882,74.87458961
883,74.20622036
884,74.25345448
885,74.82982957
886,74.48310562
887,75.05013568
888,74.47031183
889,74.91614993
890,74.48085068
891,73.55601564
892,72.61723074
893,71.00940565
894,69.55544687
895,69.09681558
896,67.6731541
897,66.62012529
898,64.99830653
899,63.89165169
900,62.37474572
901,61.57808179
902,60.9096494
903,59.86123932
904,59.29536986
905,59.19333375
906,59.12394813
907,58.25270981
908,57.56094205
909,56.80389387
910,56.16805818
911,55.42266107
912,54.70988392
913,53.80832171
914,53.02562214
915,51.97717218
916,52.46488223
917,51.17167465
918,51.43556213
919,51.65986499
920,51.63703318
921,51.141023
922,51.43987033
923,49.97415746
924,50.92802744
925,51.6301546
926,52.6376068
927,52.48190871
928,51.58728518
929,49.90475549
930,48.02178302
931,45.6026439
932,43.65206836
933,26.85531334
934,12.00028168
935,38.20583935
936,89.58392482
937,119.9876112
938,138.8435343
939,143.5385959
940,134.4714471
941,110.8751202
942,73.48392916
943,20.28856608
944,-17.73433023
945,-9.710614268
946,5.026400986
947,0.565262282
948,2.472421646
949,1.642990163
950,1.60609686
951,2.862886146
952,4.735074331
953,6.793736854
954,9.484094662
955,15.50078887
956,20.84848866
957,28.62042525
958,37.26882335
959,44.34843151
960,49.77071823
961,52.02280509
962,47.6059128
963,39.30791367
964,28.66722934
965,16.82143303
966,4.973283554
967,-2.394675157
968,-6.189211898
969,-7.193529795
970,-5.055669619
971,-2.703365744
972,0.639611687
973,5.148097879
974,9.577311339
975,13.31654955
976,17.86465285
977,21.93255873
978,25.61117907
979,29.41568108
980,34.51388095
981,37.82187059
982,42.37924655
983,46.19772758
984,50.50103806
985,54.25890454
986,58.0400526
987,60.6370848
988,65.26438711
989,69.63295807
990,74.77075178
991,77.80130339
992,80.98337146
993,85.29830974
994,88.43609016
995,91.35942023
996,94.68368692
997,98.47877548
998,103.4533956
999,107.027042
1000,111.0552444
1001,113.5822837
1002,117.4356443
1003,122.6479797
1004,125.2845672
1005,129.2265103
1006,132.4924552
1007,135.0497786
1008,137.868146
1009,140.6865407
1010,142.2298465
1011,144.1484542
1012,147.7267571
1013,150.4332305
1014,154.0418001
1015,157.6527163
1016,160.5060303
1017,161.7416347
1018,161.7138385
1019,161.3060647
1020,157.8796718
1021,158.6187418
1022,148.6002708
1023,129.4209382
1024,136.6028999
1025,187.738258
1026,223.6731122
1027,247.062553
1028,257.2841132
1029,255.2329651
1030,239.3403219
1031,211.9558541
1032,165.1308007
1033,123.6180914
1034,117.280214
1035,141.1078301
1036,140.1335935
1037,143.8889373
1038,145.5953276
1039,148.4788996
1040,151.1526294
1041,152.6795359
1042,156.0386228
1043,161.4442763
1044,165.7194333
1045,172.7125129
1046,180.8757553
1047,192.1345754
1048,201.1183373
1049,209.7547752
1050,214.9529774
1051,214.68264
1052,210.6477117
1053,201.1349665
1054,190.8226574
1055,180.7294611
1056,173.3029181
1057,167.3845504
1058,164.8810964
1059,164.8554833
1060,166.2121606
1061,166.8555472
1062,167.2005601
1063,167.1889413
1064,168.3940855
1065,168.0770707
1066,171.3101928
1067,170.6318737
1068,172.3125295
1069,173.3731259
1070,173.5223115
1071,175.2402498
1072,175.4267212
1073,173.9092403
1074,173.8416157
1075,172.6877451
1076,172.8159451
1077,172.2028698
1078,171.0839624
1079,169.3239994
1080,169.6643138
1081,170.9579636
1082,169.0231859
1083,169.4473832
1084,169.132655
1085,170.0929785
1086,168.491531
1087,169.8690842
1088,167.1464142
1089,167.8736311
1090,167.5005945
1091,167.9853731
1092,165.2113898
1093,165.4467416
1094,163.0480569
1095,164.4675756
1096,160.4581665
1097,162.6841666
1098,162.7143626
1099,164.497485
1100,164.6745555
1101,163.7746878
1102,159.7023009
1103,157.7208531
1104,156.4526589
1105,149.335981
1106,129.3731695
1107,126.8392487
1108,169.3705712
1109,211.4263959
1110,235.7059722
1111,247.6405745
1112,247.3234034
1113,233.2976414
1114,206.4536692
1115,163.5490859
1116,113.935881
1117,94.86112495
1118,114.4064217
1119,119.6253602
1120,116.8210105
1121,119.3173166
1122,119.4500329
1123,119.4731573
1124,120.7713334
1125,121.9926018
1126,123.041351
1127,127.7731108
1128,132.4069363
1129,139.9405388
1130,145.9659898
1131,154.5788399
1132,159.5226802
1133,162.5154674
1134,160.475628
1135,153.4987126
1136,143.1535076
1137,130.5635484
1138,118.3185566
1139,106.5677325
1140,97.62113492
1141,93.13837065
1142,89.47844852
1143,88.0656239
1144,87.32412163
1145,87.64554329
1146,86.3422668
1147,87.1065529
1148,88.37669506
1149,87.54661416
1150,88.70716105
1151,89.04488967
1152,89.61570823
1153,89.78561404
1154,90.3097951
1155,90.76173772
1156,90.2625967
1157,91.21801168
1158,91.58602099
1159,90.63234119
1160,91.78122765
1161,92.00469574
1162,91.87620128
1163,92.74767298
1164,92.34176709
1165,93.14331637
1166,93.16629788
1167,92.45267328
1168,93.3964245
1169,93.35878813
1170,93.96683935
1171,93.92455765
1172,93.79133026
1173,94.79564226
1174,94.45729957
1175,95.3777121
1176,96.25380979
1177,96.57747495
1178,99.69831697
1179,101.436862
1180,103.2243843
1181,104.6086441
1182,104.5872914
1183,103.7011283
1184,102.9361777
1185,103.7260028
1186,101.9423993
1187,85.29163546
1188,75.52203286
1189,113.5775612
1190,163.0130606
1191,190.7469271
1192,207.7698222
1193,209.5293167
1194,199.5056048
1195,176.5028552
1196,136.7448532
1197,85.27822974
1198,56.82326066
1199,75.67129729
1200,88.08112869
1201,86.12730931
1202,89.83083524
1203,90.76046258
1204,93.71572136
1205,95.55443019
1206,97.21366182
1207,100.5744892
1208,104.2220565
1209,111.3661109
1210,117.5801083
1211,126.8663375
1212,135.6444151
1213,143.7838176
1214,147.4173574
1215,147.8294583
1216,141.6005341
1217,134.8214967
1218,122.1939453
1219,112.3076931
1220,100.0484517
1221,94.26473183
1222,88.6744596
1223,88.23805368
1224,85.44501601
1225,87.78014885
1226,86.83558477
1227,90.25930349
1228,89.42892953
1229,91.35847047
1230,90.56306301
1231,91.85624476
1232,90.74381405
1233,91.84814638
1234,90.9035557
1235,92.07550834
1236,92.55513587
1237,94.19091853
1238,94.48639635
1239,94.85648633
1240,95.96314524
1241,95.6478648
1242,97.05523729
1243,96.30406763
1244,97.681099
1245,97.81804526
1246,99.53308267
1247,98.43924836
1248,100.2125677
1249,99.15366936
1250,101.2789413
1251,99.8960617
1252,103.1238966
1253,100.6081368
1254,104.0131195
1255,102.5043416
1256,105.4151466
1257,103.6872458
1258,106.4348667
1259,104.7326246
1260,108.4802387
1261,107.0250603
1262,109.8798761
1263,109.7160728
1264,113.2492267
1265,112.4443645
1266,115.1943086
1267,113.468694
1268,113.7967259
1269,111.4440599
1270,114.1217251
1271,102.5080051
1272,85.43041461
1273,92.47867528
1274,148.5572671
1275,185.8362951
1276,209.8309569
1277,221.4432912
1278,217.2304879
1279,200.5701105
1280,168.6043708
1281,120.3635729
1282,73.14144845
1283,66.13840636
1284,90.69245934
1285,89.91084614
1286,89.50221547
1287,93.81385735
1288,92.9622879
1289,97.03848002
1290,96.3920736
1291,101.6127903
1292,102.7682266
1293,109.8350671
1294,114.3215209
1295,123.8592104
1296,130.6743014
1297,141.7061859
1298,146.7240901
1299,152.103258
1300,148.0185859
1301,143.9781915
1302,133.1382638
1303,123.5617299
1304,111.3278441
1305,102.4762487
1306,95.29362575
1307,92.46066992
1308,90.75127643
1309,91.2982578
1310,91.47926904
1311,92.55770738
1312,94.07205549
1313,94.26706433
1314,95.57626663
1315,94.53115652
1316,96.36717712
1317,95.0073631
1318,96.78743833
1319,96.16190111
1320,97.80207712
1321,96.33040288
1322,98.76079441
1323,96.16087867
1324,98.16001965
1325,95.61371664
1326,97.71310123
1327,94.91972126
1328,97.11696907
1329,95.06482391
1330,96.46491542
1331,94.10273553
1332,95.09486141
1333,91.84690217
1334,93.09079142
1335,90.29036582
1336,91.16825111
1337,89.5170193
1338,90.8890996
1339,89.77164411
1340,90.94089794
1341,91.30829908
1342,92.44025378
1343,93.43701229
1344,94.76943032
1345,96.07621025
1346,97.14522442
1347,98.86224551
1348,98.88230283
1349,100.9862802
1350,101.0809158
1351,104.110271
1352,105.7293751
1353,109.7774004
1354,109.8697034
1355,113.1507849
1356,111.5554286
1357,112.7199873
1358,110.0779935
1359,113.8066325
1360,102.5072835
1361,88.49467429
1362,93.81070559
1363,152.5136965
1364,187.9486176
1365,214.9219876
1366,225.0049428
1367,223.654301
1368,205.4178527
1369,175.9902999
1370,125.4275204
1371,80.51976695
1372,70.28797449
1373,98.10515942
1374,95.6309592
1375,98.83040066
1376,101.9529345
1377,105.1010998
1378,107.3727969
1379,109.9032187
1380,113.3147713
1381,116.4955771
1382,122.8231996
1383,128.5074778
1384,136.4854538
1385,143.2140063
1386,153.1663409
1387,158.3307694
1388,163.1199198
1389,160.3426302
1390,156.6306144
1391,144.7717446
1392,135.4116813
1393,121.818552
1394,113.6496442
1395,104.6462299
1396,103.8292746
1397,100.368975
1398,103.0998342
1399,102.194307
1400,105.894825
1401,104.7072477
1402,107.7387833
1403,106.9987396
1404,108.7691907
1405,108.3508261
1406,110.0723203
1407,109.6353029
1408,111.3777561
1409,112.1225557
1410,114.0864683
1411,115.1878897
1412,115.9373181
1413,116.7776855
1414,116.7252579
1415,117.3115293
1416,116.4758614
1417,118.353508
1418,117.5854298
1419,119.8080405
1420,119.946755
1421,122.41411
1422,120.8208538
1423,123.3744753
1424,121.1914602
1425,123.3371467
1426,121.3569448
1427,124.658783
1428,122.5503701
1429,125.5841353
1430,124.3848039
1431,126.4441972
1432,124.4359907
1433,126.7821206
1434,124.3193481
1435,126.1899464
1436,124.6129705
1437,127.1105763
1438,124.6478211
1439,127.2176859
1440,126.2350876
1441,126.4436481
1442,128.0717915
1443,130.4155382
1444,131.2907452
1445,132.7137394
1446,132.9618952
1447,131.7835033
1448,131.2111263
1449,131.5618416
1450,129.9288805
1451,112.200335
1452,101.5254056
1453,131.7735686
1454,182.6860348
1455,210.6381401
1456,231.5156266
1457,233.9432501
1458,228.5713403
1459,203.7798105
1460,168.8181418
1461,114.8378236
1462,85.05330287
1463,94.90748118
1464,110.8548874
1465,106.6764052
1466,112.138972
1467,111.5385777
1468,116.7307216
1469,115.7457076
1470,121.4203582
1471,122.754704
1472,128.5365868
1473,130.9361726
1474,140.7809759
1475,147.6793954
1476,157.7223427
1477,165.4459203
1478,172.6030578
1479,173.1914664
1480,170.4068553
1481,162.1490963
1482,151.2689281
1483,139.1160514
1484,129.538916
1485,121.2251745
1486,115.9230874
1487,115.1827646
1488,114.0788215
1489,115.8396517
1490,115.1692652
1491,117.8858077
1492,116.4065461
1493,119.4144638
1494,117.7300565
1495,120.9873877
1496,119.1258496
1497,122.6046098
1498,120.8059923
1499,123.5201584
1500,122.7681652
1501,124.6524906
1502,121.9401026
1503,125.13448
1504,122.6365323
1505,126.5231943
1506,124.4774494
1507,127.702087
1508,126.455896
1509,128.8740084
1510,128.9238313
1511,128.9526547
1512,128.4150381
1513,129.9124219
1514,129.8316773
1515,131.5574784
1516,132.397473
1517,132.6757272
1518,133.6299425
1519,133.8172477
1520,133.9905725
1521,133.7699731
1522,134.584313
1523,134.2238144
1524,135.1687018
1525,134.0483088
1526,136.4197338
1527,134.206103
1528,136.6474676
1529,134.5317306
1530,136.9451039
1531,136.5449669
1532,140.5271203
1533,140.6724478
1534,143.5077134
1535,141.9047737
1536,144.0827146
1537,140.0997939
1538,141.9630614
1539,139.3927317
1540,133.0951344
1541,113.429217
1542,116.8891814
1543,163.666159
1544,203.0911741
1545,224.8122063
1546,236.7779862
1547,233.8603095
1548,222.0032373
1549,193.1834542
1550,148.687673
1551,103.3737427
1552,90.60058056
1553,116.3798443
1554,117.9796308
1555,119.1435315
1556,120.3913216
1557,123.5598543
1558,124.9451805
1559,127.6498393
1560,127.3615138
1561,132.6302529
1562,135.2137165
1563,144.4428371
1564,148.3269837
1565,159.2903507
1566,165.1698214
1567,174.1984893
1568,175.3716546
1569,176.6660324
1570,167.9557377
1571,161.5834523
1572,147.6959964
1573,137.3353316
1574,125.2217643
1575,120.0615934
1576,113.9899811
1577,114.2353821
1578,112.5973264
1579,114.6236046
1580,114.0997696
1581,115.601566
1582,115.3737448
1583,115.09932
1584,115.622072
1585,115.4548488
1586,116.0638673
1587,117.0364995
1588,117.5639074
1589,118.9328037
1590,120.4136046
1591,119.5400626
1592,123.174696
1593,120.6624755
1594,122.663069
1595,121.5144588
1596,122.687531
1597,122.9281964
1598,123.3903245
1599,122.4421709
1600,123.880977
1601,122.900163
1602,126.1268346
1603,123.7497738
1604,126.4519637
1605,125.1168578
1606,127.3341779
1607,127.5118827
1608,128.2886443
1609,127.0141331
1610,128.7722418
1611,129.1037725
1612,130.4539461
1613,129.0139248
1614,130.9421557
1615,130.0848913
1616,132.2252433
1617,133.1488561
1618,135.881273
1619,137.3480005
1620,137.1550262
1621,137.7429323
1622,134.5079897
1623,134.046939
1624,133.2548913
1625,117.304332
1626,103.1882421
1627,130.3822074
1628,183.1915258
1629,215.2199877
1630,232.2600734
1631,238.5006257
1632,227.9952641
1633,210.2684636
1634,172.4787021
1635,123.565402
1636,88.89449979
1637,99.34715989
1638,115.7532163
1639,113.4459516
1640,114.0011713
1641,115.3046177
1642,114.7013224
1643,118.7693496
1644,119.0401627
1645,122.8494551
1646,126.2437968
1647,131.4470035
1648,136.8670037
1649,145.6902294
1650,153.8235104
1651,160.4742441
1652,165.0527393
1653,167.9622249
1654,161.5663483
1655,153.3196383
1656,142.7792238
1657,129.194525
1658,116.7892967
1659,107.9272169
1660,101.3378389
1661,95.63889949
1662,95.32688911
1663,93.31327628
1664,92.63764231
1665,91.42587221
1666,90.92503628
1667,89.62701685
1668,89.71360714
1669,87.57875855
1670,87.35296426
1671,85.20178212
1672,87.78488011
1673,82.77120354
1674,85.6619731
1675,80.57138558
1676,81.78383429
1677,79.56967445
1678,80.15040265
1679,76.47938802
1680,76.95522065
1681,74.95784439
1682,75.08634982
1683,70.62976892
1684,73.55077869
1685,68.97764451
1686,72.13177141
1687,69.36981833
1688,69.35377256
1689,69.5731666
1690,68.8531347
1691,68.45481578
1692,66.45273378
1693,66.20357814
1694,66.74229149
1695,67.29964776
1696,67.62625729
1697,70.32813816
1698,69.86915756
1699,73.29829619
1700,70.27522202
1701,70.68570776
1702,65.39922973
1703,65.80738949
1704,63.35537747
1705,49.32062897
1706,33.55162422
1707,69.74996234
1708,117.5986572
1709,149.5662453
1710,165.9906782
1711,170.5246658
1712,159.3314163
1713,138.662608
1714,100.7676917
1715,50.51144387
1716,18.11302661
1717,32.54445528
1718,47.34183215
1719,47.04130532
1720,49.68947511
1721,51.32367978
1722,55.90426175
1723,58.76224518
1724,61.59922919
1725,66.37560197
1726,70.2382141
1727,75.98894547
1728,84.94478216
1729,92.77244169
1730,102.4462283
1731,110.0081341
1732,118.4348437
1733,117.824227
1734,114.9385826
1735,107.7871877
1736,97.44929668
1737,87.18833709
1738,79.24905998
1739,69.01607837
1740,67.18867205
1741,64.31930074
1742,66.38001033
1743,65.36842046
1744,69.23799181
1745,70.10987918
1746,72.28010307
1747,73.66715102
1748,77.64156748
1749,77.8491044
1750,81.25475811
1751,82.0100789
1752,85.28520228
1753,86.76778083
1754,88.75383507
1755,90.32731884
1756,90.94743015
1757,92.39035307
1758,93.14565061
1759,93.36246215
1760,93.5093546
1761,94.86837141
1762,96.80544886
1763,99.01061991
1764,99.49081206
1765,103.362633
1766,105.1668541
1767,109.7216212
1768,112.5538203
1769,118.9990227
1770,120.9291156
1771,125.2601145
1772,124.3020477
1773,125.0759416
1774,120.5001923
1775,121.3882764
1776,115.7285971
1777,99.53043181
1778,91.38356326
1779,139.1597566
1780,183.0967742
1781,213.182989
1782,227.6748095
1783,229.9638069
1784,216.6560603
1785,192.9846934
1786,149.8587638
1787,100.4251527
1788,76.11739279
1789,100.1755963
1790,107.4902358
1791,107.3782666
1792,111.1847207
1793,112.4270845
1794,115.7090569
1795,117.7159709
1796,120.1098141
1797,123.878959
1798,129.762328
1799,135.9696987
1800,144.4264558
1801,152.3354495
1802,162.7362918
1803,168.1231231
1804,173.1952843
1805,169.8478561
1806,165.5190403
1807,155.2042592
1808,145.9780063
1809,133.145732
1810,125.9987266
1811,118.0032681
1812,116.7373901
1813,114.5950744
1814,116.1147427
1815,115.2800986
1816,118.8323836
1817,118.0443637
1818,120.1584096
1819,119.1419285
1820,120.6079575
1821,119.3094262
1822,122.4514434
1823,122.2484866
1824,123.1457462
1825,124.931125
1826,126.7327969
1827,127.7279469
1828,128.7697245
1829,128.7252255
1830,129.6574383
1831,130.5826287
1832,131.3283725
1833,131.7943583
1834,130.9573012
1835,133.2531448
1836,132.1736494
1837,134.3855631
1838,133.91449
1839,135.8373345
1840,135.9513073
1841,138.3450314
1842,138.5638864
1843,140.740807
1844,138.9177242
1845,142.696048
1846,141.8030123
1847,146.4950563
1848,148.3199705
1849,152.1425621
1850,151.9231886
1851,153.8296969
1852,151.8969989
1853,151.5237764
1854,149.1971509
1855,147.7306905
1856,129.5299433
1857,121.4457395
1858,157.6412564
1859,207.7808008
1860,235.8947377
1861,254.1019024
1862,257.8218811
1863,248.0733202
1864,224.8165772
1865,184.1146405
1866,132.4779775
1867,102.4846218
1868,118.7407134
1869,130.0271057
1870,128.5932187
1871,131.1453209
1872,134.1706253
1873,135.284519
1874,139.3471092
1875,139.4353309
1876,144.0573627
1877,145.7772916
1878,153.3456975
1879,158.5574715
1880,169.0139627
1881,176.8084633
1882,187.5307254
1883,191.7331478
1884,194.2362566
1885,188.6974309
1886,182.6760579
1887,170.4565615
1888,160.9270337
1889,149.346233
1890,143.3924432
1891,138.1449489
1892,138.0979212
1893,136.8737662
1894,137.4654037
1895,137.1876227
1896,137.9680964
1897,138.0306102
1898,138.8017388
1899,138.633472
1900,139.2437664
1901,139.8633958
1902,140.6321919
1903,142.298415
1904,141.9180039
1905,143.2252726
1906,142.6723696
1907,145.0728323
1908,143.6155037
1909,144.9926749
1910,144.076111
1911,145.3530559
1912,143.8700486
1913,145.5246113
1914,143.8015157
1915,146.1320361
1916,144.0056745
1917,146.6928471
1918,144.6993524
1919,147.4331188
1920,146.4209712
1921,148.2899238
1922,146.8395372
1923,148.9275994
1924,148.493533
1925,150.4184415
1926,149.0659419
1927,150.832305
1928,150.3842483
1929,150.7962956
1930,150.4997215
1931,151.4315986
1932,150.7970357
1933,154.0249267
1934,156.9777594
1935,158.0261699
1936,159.3146588
1937,159.0693615
1938,158.4511055
1939,155.2686982
1940,156.0979759
1941,148.3724711
1942,131.2506923
1943,129.1941873
1944,179.0444172
1945,217.7734585
1946,244.6050356
1947,257.0846195
1948,258.2495334
1949,242.4633942
1950,216.8590754
1951,170.6090623
1952,123.1236028
1953,103.4446891
1954,128.0291692
1955,129.2756333
1956,130.4684748
1957,131.7942169
1958,135.5534884
1959,136.137952
1960,139.3820801
1961,140.3394923
1962,144.707149
1963,148.0841407
1964,155.1207971
1965,161.6819253
1966,169.8094564
1967,177.8880644
1968,185.3046514
1969,189.0102975
1970,187.8720987
1971,183.1628212
1972,174.2950015
1973,163.8257991
1974,151.9952958
1975,143.5074405
1976,135.5114032
1977,132.8184327
1978,129.7617808
1979,130.7774218
1980,129.8536368
1981,132.4589928
1982,131.707717
1983,134.3969897
1984,133.5641033
1985,136.2347231
1986,134.9962514
1987,137.28924
1988,136.2908435
1989,138.5791563
1990,137.6180761
1991,140.1371562
1992,139.2716199
1993,141.1426831
1994,141.0556741
1995,142.0805698
1996,141.3106012
1997,142.1979475
1998,140.7076965
1999,140.4481855
2000,139.3285333
2001,139.190262
2002,138.7139442
2003,138.6595591
2004,139.8989024
2005,139.4785438
2006,140.7668001
2007,140.4583124
2008,140.6346846
2009,139.0488159
2010,140.0060653
2011,137.8583919
2012,139.5988683
2013,137.5234538
2014,139.4130935
2015,137.8761551
2016,139.5326948
2017,137.9351418
2018,139.0601807
2019,138.353063
2020,142.4268258
2021,142.1556145
2022,145.1967168
2023,142.3357467
2024,142.9432791
2025,138.5928004
2026,138.1490566
2027,131.8195368
2028,114.4387137
2029,101.9343826
2030,142.2598516
2031,185.4547936
2032,212.6847054
2033,227.343508
2034,229.0023072
2035,216.3720406
2036,191.6788435
2037,149.8924118
2038,96.62114403
2039,67.37315785
2040,83.16947987
2041,89.19886131
2042,84.68746794
2043,86.13877877
2044,84.74160605
2045,86.06702522
2046,84.63023404
2047,86.16777425
2048,85.97569688
2049,89.20787155
2050,90.90159076
2051,97.18038965
2052,101.4381891
2053,109.9011244
2054,113.8372315
2055,117.5052993
2056,113.926263
2057,109.9509526
2058,97.3299479
2059,85.30568066
2060,68.78723894
2061,56.81423458
2062,45.54520638
2063,40.05238947
2064,34.49664198
2065,33.36513128
2066,31.82568879
2067,31.48903229
2068,29.27592287
2069,29.30989571
2070,27.67952806
2071,28.18901915
2072,28.60527571
2073,28.76977419
2074,29.13007013
2075,27.91226827
2076,27.83899433
2077,26.18296865
2078,26.40105464
2079,25.22054722
2080,27.002744
2081,26.95975739
2082,28.55078541
2083,27.37493389
2084,29.29929877
2085,27.33088383
2086,29.55361243
2087,28.54556377
2088,30.61211201
2089,29.68798005
2090,33.38622025
2091,32.75811741
2092,35.77336756
2093,35.420313
2094,40.2187749
2095,39.66991291
2096,43.17698632
2097,44.18289674
2098,47.51280897
2099,47.69586728
2100,51.06773453
2101,52.36499823
2102,55.88139008
2103,57.90125761
2104,62.93277954
2105,63.83145512
2106,68.80236248
2107,74.24412224
2108,78.62530128
2109,81.94351923
2110,84.42723068
2111,86.43541391
2112,86.64873298
2113,89.08351479
2114,87.34110821
2115,72.92969197
2116,63.95418548
2117,107.4076002
2118,153.2455942
2119,183.4519015
2120,199.7327904
2121,204.9600566
2122,194.8656642
2123,175.1582009
2124,136.3411761
2125,90.51249028
2126,65.16164538
2127,87.65930791
2128,96.17561335
2129,97.99492451
2130,100.7606435
2131,105.4307475
2132,107.7955199
2133,114.3840744
2134,116.2966001
2135,123.3140419
2136,129.2242417
2137,137.6286398
2138,145.35234
2139,155.7543816
2140,167.1237966
2141,176.5235122
2142,183.477973
2143,184.9942286
2144,181.2750377
2145,171.9241297
2146,161.2935247
2147,148.6255934
2148,136.7408925
2149,127.1592277
2150,124.0134422
2151,119.9166036
2152,122.4211716
2153,122.1005409
2154,126.8358762
2155,127.536235
2156,132.7750426
2157,135.8203654
2158,139.930962
2159,141.7268885
2160,145.4342192
2161,145.9830383
2162,150.2264952
2163,150.0713281
2164,153.1213274
2165,154.1083656
2166,156.204928
2167,157.5159647
2168,159.398104
2169,159.2243012
2170,160.9455758
2171,161.9582288
2172,164.0548018
2173,164.7387739
2174,167.1383798
2175,168.8060183
2176,170.3314721
2177,172.7054333
2178,174.0047757
2179,175.3786997
2180,177.0067098
2181,178.6976438
2182,178.9060916
2183,180.3918797
2184,179.8334141
2185,180.9019593
2186,179.6721309
2187,182.4213335
2188,182.0166937
2189,184.3369651
2190,186.3169317
2191,189.9029435
2192,190.7360529
2193,193.8488525
2194,192.4208773
2195,193.5616549
2196,189.9961609
2197,192.0763239
2198,187.5224505
2199,173.1084357
2200,164.8272912
2201,197.3083809
2202,243.2510151
2203,272.2449155
2204,288.1945011
2205,293.4774574
2206,282.1193581
2207,259.5934393
2208,220.1048097
2209,170.5159266
2210,142.98069
2211,154.156357
2212,166.4509477
2213,163.3562224
2214,166.1962472
2215,166.3439468
2216,166.5872242
2217,165.7419363
2218,167.2532734
2219,166.7109879
2220,171.1523721
2221,174.1112396
2222,181.6202441
2223,186.3902927
2224,195.2908921
2225,198.48287
2226,201.9522189
2227,198.4168953
2228,193.2009043
2229,179.0082559
2230,166.4542761
2231,149.0541626
2232,136.7495963
2233,123.0184519
2234,115.6719173
2235,107.6843576
2236,105.1140615
2237,100.4365232
2238,98.10862157
2239,93.26789918
2240,90.29429994
2241,86.17152746
2242,83.06974774
2243,78.18936973
2244,74.09222204
2245,70.31211814
2246,67.16601361
2247,62.68889684
2248,59.14418031
2249,55.99574647
2250,52.49531956
2251,49.74780376
2252,46.43850179
2253,44.88446079
2254,43.27678182
2255,42.61317606
2256,40.37147249
2257,39.24631224
2258,37.10949095
2259,35.42022187
2260,31.44423682
2261,28.41230974
2262,24.63211883
2263,23.46731155
2264,20.30016637
2265,18.3917764
2266,14.9752044
2267,12.54231743
2268,8.799414314
2269,6.368855292
2270,2.56298777
2271,-0.329110492
2272,-2.764348674
2273,-2.761357757
2274,-5.226891283
2275,-5.305495758
2276,-5.258218547
2277,-5.637519366
2278,-6.140373924
2279,-7.440442498
2280,-10.26962817
2281,-14.36689882
2282,-18.46650739
2283,-21.18382559
2284,-38.34870265
2285,-57.04271206
2286,-36.77169795
2287,18.36178538
2288,55.00109425
2289,80.53781495
2290,94.48015672
2291,92.76981572
2292,78.41609982
2293,49.33510093
2294,2.74595052
2295,-32.8968226
2296,-23.98480472
2297,0.351434681
2298,2.487216049
2299,9.271004347
2300,17.46505238
2301,23.05069866
2302,30.64566473
2303,37.84203739
2304,45.57685888
2305,54.02963359
2306,64.11176898
2307,75.86988067
2308,89.40655349
2309,103.2742472
2310,118.4146426
2311,128.4944268
2312,135.3597606
2313,137.2344295
2314,132.9132638
2315,125.5454944
2316,116.3199031
2317,107.4766021
2318,98.19039624
2319,92.29114993
2320,89.2613461
2321,87.16394251
2322,86.29264033
2323,86.44465026
2324,86.26798255
2325,87.80227954
2326,88.32958467
2327,90.1039568
2328,89.9272758
2329,93.02332706
2330,96.82332399
2331,101.6163291
2332,106.5818162
2333,112.1557289
2334,117.533807
2335,122.8792585
2336,127.1127987
2337,132.0852882
2338,135.4144029
2339,141.0814963
2340,146.1308802
2341,151.5812007
2342,155.9988945
2343,160.164815
2344,163.2538279
2345,165.6272003
2346,169.2476701
2347,172.1618379
2348,175.5631849
2349,179.6382041
2350,183.7295164
2351,187.270685
2352,189.8398654
2353,192.4486543
2354,193.9082394
2355,195.200005
2356,197.4195017
2357,198.4641904
2358,201.0053663
2359,204.9357905
2360,209.3067937
2361,206.9994793
2362,202.1024094
2363,193.4174639
2364,182.8630388
2365,175.2806562
2366,168.6679358
2367,165.7894956
2368,153.6779587
2369,147.3216676
2370,178.5760909
2371,234.0705927
2372,267.5487947
2373,289.9780128
2374,299.4562082
2375,298.3819406
2376,281.7505407
2377,253.8021515
2378,209.5716849
2379,181.9915751
2380,192.115411
2381,214.1413737
2382,212.5192923
2383,217.6990874
2384,220.6807286
2385,225.1681953
2386,227.4388619
2387,232.3715429
2388,235.987204
2389,242.0317863
2390,245.6544293
2391,252.6523741
2392,259.2027448
2393,266.1680597
2394,273.012125
2395,277.3224039
2396,276.0546156
2397,272.7681472
2398,263.9711774
2399,255.5961403
2400,243.263031
2401,233.8833181
2402,226.9231881
2403,221.053936
2404,218.9283025
2405,215.0800399
2406,212.3763053
2407,211.1340846
2408,206.4699551
2409,203.3839168
2410,200.2209709
2411,197.1652298
2412,196.0045966
2413,194.3054773
2414,193.6879588
2415,192.3408226
2416,191.5834353
2417,188.7677867
2418,183.777269
2419,176.3765307
2420,168.3044328
2421,157.8966688
2422,148.8362526
2423,140.0928191
2424,133.1815356
2425,130.2190098
2426,127.9860644
2427,129.6738615
2428,136.4409094
2429,142.8769299
2430,153.1591384
2431,163.2245467
2432,175.1057782
2433,184.1735297
2434,194.4277098
2435,204.2763385
2436,209.7846013
2437,219.6145466
2438,227.5144348
2439,234.0949838
2440,241.155693
2441,245.1977527
2442,249.2910786
2443,250.3914202
2444,254.8367291
2445,256.027976
2446,241.6644099
2447,241.1120587
2448,257.9442868
2449,311.0492776
2450,342.7906177
2451,359.1799647
2452,367.1427337
2453,361.2779847
2454,344.0286498
2455,312.173202
2456,266.6464557
2457,242.683793
2458,244.3248563
2459,267.1710553
2460,265.0055934
2461,265.7888585
2462,270.3110425
2463,270.7632769
2464,273.6304554
2465,275.84724
2466,277.527919
2467,282.5768808
2468,288.4463654
2469,292.9009296
2470,301.0454625
2471,308.064107
2472,315.5186613
2473,318.9498969
2474,318.9358777
2475,313.3508102
2476,302.2552108
2477,290.9405224
2478,276.0383978
2479,265.262155
2480,255.5674822
2481,248.2550999
2482,246.1198688
2483,244.3109893
2484,242.8470772
2485,243.0031874
2486,240.0148241
2487,240.3317858
2488,238.8492142
2489,238.8701182
2490,237.4994479
2491,236.1310936
2492,237.0447795
2493,237.6251185
2494,236.2497657
2495,235.7485245
2496,233.5572777
2497,234.2844845
2498,233.988342
2499,230.4474758
2500,227.9089255
2501,225.0929672
2502,224.5147985
2503,221.7407952
2504,219.6823953
2505,219.705596
2506,222.0504792
2507,224.8359108
2508,226.4465345
2509,224.3601638
2510,222.3250594
2511,218.8354228
2512,214.7746769
2513,211.7139277
2514,202.1566847
2515,182.8581664
2516,183.3149243
2517,228.6947136
2518,268.6898865
2519,290.0953344
2520,301.9553078
2521,297.8968819
2522,282.8291143
2523,255.0387481
2524,208.1947287
2525,160.4323405
2526,144.1594205
2527,164.5461955
2528,167.434127
2529,164.6367218
2530,166.8206671
2531,167.1095285
2532,167.7666727
2533,169.1231239
2534,169.5681338
2535,171.7310969
2536,173.3439163
2537,178.1549135
2538,184.2689164
2539,191.1940732
2540,198.6600593
2541,203.8206831
2542,204.286632
2543,200.4309222
2544,192.1160112
2545,180.1693829
2546,166.9336889
2547,154.5231868
2548,143.2758589
2549,136.459741
2550,131.9373515
2551,130.1049001
2552,129.4846036
2553,127.3677828
2554,127.733472
2555,127.0152651
2556,127.0126311
2557,125.3876488
2558,124.7486861
2559,124.1842745
2560,124.3121813
2561,125.1161103
2562,124.7171855
2563,123.6353046
2564,124.9100488
2565,125.0123042
2566,124.0259944
2567,122.7622764
2568,122.3959856
2569,121.4166543
2570,121.5048856
2571,120.0477034
2572,119.1126126
2573,118.0819985
2574,118.9417924
2575,118.8248985
2576,121.5448237
2577,121.5351619
2578,122.3762963
2579,122.3316546
2580,120.4291911
2581,118.1141571
2582,115.5100572
2583,115.0691316
2584,108.1410199
2585,89.80030735
2586,89.51321082
2587,139.8252015
2588,180.9366884
2589,206.0155793
2590,218.1154018
2591,215.7537037
2592,199.4246256
2593,170.5035031
2594,123.01591
2595,72.53298276
2596,54.27150302
2597,79.32001752
2598,80.59232935
2599,80.77372599
2600,82.72901457
2601,83.93838918
2602,85.38085374
2603,87.46433669
2604,89.59209733
2605,92.60330802
2606,96.52128418
2607,102.5861076
2608,109.3035766
2609,116.9581456
2610,125.8994239
2611,131.9851996
2612,133.7166629
2613,131.0635099
2614,123.9464863
2615,113.7525551
2616,101.8103601
2617,90.78887708
2618,81.89797547
2619,75.97673606
2620,75.36317156
2621,74.64239548
2622,75.37385606
2623,76.98174765
2624,78.64090544
2625,80.0203358
2626,81.43708582
2627,82.30836133
2628,82.93021336
2629,83.63134672
2630,84.71473995
2631,84.84006101
2632,85.52717684
2633,86.36815897
2634,86.63800131
2635,87.35541112
2636,88.56466942
2637,88.25408796
2638,88.73839455
2639,89.59098394
2640,89.22677313
2641,88.90687052
2642,89.31654833
2643,89.47451384
2644,89.68606488
2645,90.9302359
2646,92.73153249
2647,93.82185775
2648,95.23386547
2649,96.7624165
2650,97.34922227
2651,97.4162188
2652,98.58813144
2653,98.94183397
2654,101.3654795
2655,104.0128765
2656,105.5670391
2657,107.3216682
2658,107.7453004
2659,107.0687096
2660,105.9398754
2661,105.2282743
2662,102.3838268
2663,86.66291113
2664,76.7974609
2665,118.596375
2666,166.8637917
2667,196.6743263
2668,214.9906865
2669,218.209143
2670,207.8192283
2671,183.4968761
2672,144.1885282
2673,93.42094844
2674,64.77693104
2675,85.37998062
2676,95.46789016
2677,94.97303271
2678,99.14018976
2679,102.2070932
2680,105.3206243
2681,108.8537381
2682,113.7830889
2683,118.3092076
2684,123.0381123
2685,129.4546357
2686,136.7709361
2687,145.7888933
2688,154.9979483
2689,163.5426933
2690,169.2132895
2691,170.1170061
2692,167.4356059
2693,160.7985138
2694,150.2756458
2695,139.4403965
2696,130.3417466
2697,123.6929836
2698,120.0139133
2699,118.7870491
2700,119.7746287
2701,120.5174539
2702,122.2882605
2703,125.1732604
2704,126.4592276
2705,128.0155466
2706,130.3387995
2707,131.8974313
2708,133.3349049
2709,134.2688351
2710,135.4778475
2711,135.7334569
2712,136.25481
2713,137.7668214
2714,138.3534145
2715,139.2314166
2716,140.4753517
2717,141.3976281
2718,142.2522743
2719,142.6850116
2720,143.1667264
2721,143.8511966
2722,144.2186774
2723,144.5348548
2724,145.2706151
2725,146.8478637
2726,147.2083122
2727,147.9440625
2728,149.057434
2729,150.0449171
2730,150.6827571
2731,151.2157048
2732,151.5038982
2733,151.4913681
2734,152.0382828
2735,152.5129287
2736,151.2882914
2737,151.9074618
2738,152.0464349
2739,153.8963421
2740,156.3872982
2741,158.4027261
2742,160.502074
2743,161.1841518
2744,161.0783539
2745,159.1730226
2746,158.1324647
2747,156.5581204
2748,139.9814535
2749,128.2812482
2750,163.4551545
2751,214.0323167
2752,244.3180938
2753,263.7483988
2754,268.1577044
2755,259.2616478
2756,236.6593195
2757,198.7166559
2758,146.3310874
2759,113.6984147
2760,127.4224281
2761,140.2070157
2762,138.4904096
2763,141.734219
2764,144.8940712
2765,147.9024308
2766,150.8967796
2767,154.7699397
2768,158.153564
2769,162.4579308
2770,168.4732623
2771,176.4140055
2772,185.7883087
2773,194.2674669
2774,203.730356
2775,209.7782941
2776,211.4602622
2777,208.4475859
2778,201.423279
2779,190.8628055
2780,180.9037385
2781,171.1498074
2782,163.4797658
2783,159.0195292
2784,158.7317747
2785,159.2622236
2786,159.9441584
2787,162.0573338
2788,163.2357525
2789,164.5447221
2790,167.7208453
2791,168.7967149
2792,170.3247602
2793,172.4192694
2794,174.5837216
2795,175.8926712
2796,177.4113954
2797,178.8858351
2798,178.7285883
2799,181.0398439
2800,181.6937781
2801,182.3523477
2802,183.1601144
2803,183.5599493
2804,184.9854156
2805,186.5693869
2806,186.5915873
2807,187.5834804
2808,187.9832987
2809,189.9891623
2810,190.1675383
2811,192.3668767
2812,191.8366279
2813,193.7725319
2814,195.5406469
2815,195.8984802
2816,195.1420829
2817,197.4765942
2818,196.8927061
2819,197.6864088
2820,197.0488947
2821,198.0943607
2822,196.515098
2823,197.5862226
2824,197.3799086
2825,198.6351391
2826,199.0652015
2827,203.0663666
2828,203.8623891
2829,207.0733254
2830,206.3774895
2831,206.8494969
2832,206.2771895
2833,204.4881125
2834,205.4356349
2835,196.9542294
2836,177.0788997
2837,183.9891196
2838,234.9715713
2839,271.3013708
2840,292.8316064
2841,302.8863138
2842,301.013314
2843,284.3640658
2844,256.4933481
2845,209.025917
2846,164.8824876
2847,157.8742478
2848,181.6492078
2849,179.8018195
2850,181.6933195
2851,181.2351763
2852,183.0124728
2853,184.5007341
2854,186.4435208
2855,187.612409
2856,192.5155467
2857,196.4676619
2858,202.9069258
2859,208.7098339
2860,217.1281256
2861,223.0779081
2862,230.9297564
2863,233.1149143
2864,231.9294635
2865,224.785971
2866,216.304493
2867,202.913893
2868,192.4603625
2869,180.2912219
2870,171.7910539
2871,168.6149181
2872,167.2056553
2873,165.213656
2874,165.3475079
2875,165.3484829
2876,168.5569436
2877,166.4763384
2878,168.780343
2879,167.7207273
2880,168.5119079
2881,170.9860685
2882,168.7819116
2883,169.0859301
2884,168.6649697
2885,169.6006649
2886,170.2403057
2887,168.4137567
2888,169.5312656
2889,169.4739361
2890,168.8571549
2891,170.7998187
2892,167.6702135
2893,169.7387557
2894,168.0799995
2895,168.3140319
2896,168.0958209
2897,169.5513126
2898,168.2258867
2899,169.781561
2900,169.9619573
2901,171.3498088
2902,169.2644819
2903,170.7921888
2904,169.984199
2905,170.1016515
2906,170.6526638
2907,172.8656602
2908,174.7733248
2909,180.6856248
2910,181.3461515
2911,180.2118445
2912,180.4457898
2913,177.7846512
2914,175.8857468
2915,173.4180831
2916,159.4655527
2917,141.8440431
2918,166.3553733
2919,222.0881662
2920,251.3337426
2921,271.3509221
2922,278.9951125
2923,269.7162039
2924,250.9035395
2925,215.8157863
2926,165.436648
2927,126.4934194
2928,135.5711531
2929,155.9915348
2930,152.7242911
2931,156.1749702
2932,158.401891
2933,160.2208495
2934,162.3545325
2935,164.3040386
2936,167.6451429
2937,170.4571301
2938,175.4952187
2939,181.740732
2940,190.3592278
2941,197.1921673
2942,205.032092
2943,209.0911296
2944,210.8121817
2945,205.7220427
2946,197.1796604
2947,186.9589911
2948,174.6147528
2949,165.7670017
2950,157.9425626
2951,151.4444752
2952,149.4964944
2953,149.1778742
2954,149.4350259
2955,148.7457631
2956,148.9492888
2957,149.6935826
2958,150.4915229
2959,151.1169441
2960,150.0686864
2961,151.530954
2962,150.4057549
2963,150.5206952
2964,151.2812927
2965,151.3425765
2966,151.1474788
2967,152.5724034
2968,153.1698101
2969,152.7765518
2970,152.5977372
2971,154.2720992
2972,152.1235819
2973,152.9237613
2974,153.2158196
2975,152.3376781
2976,152.3103634
2977,152.4485421
2978,152.3023547
2979,154.7365473
2980,157.1334747
2981,160.0595124
2982,160.9016541
2983,160.979205
2984,159.7047628
2985,157.8872265
2986,154.4263152
2987,151.8534927
2988,135.2037626
2989,120.9666268
2990,149.9998734
2991,203.170629
2992,233.3577081
2993,250.7779076
2994,257.4801168
2995,247.361827
2996,225.3810766
2997,188.3699885
2998,134.8391216
2999,100.0588007
3000,110.7353857
3001,127.1601973
3002,124.6083211
3003,125.2592308
3004,127.9217949
3005,128.3512624
3006,130.8739578
3007,132.5668159
3008,134.2293973
3009,137.7963637
3010,142.5008696
3011,148.2473338
3012,156.1382954
3013,163.4302241
3014,170.3095213
3015,173.4405853
3016,172.1753751
3017,166.705053
3018,156.4188401
3019,144.9041999
3020,132.0632318
3021,120.399415
3022,111.3043204
3023,107.3141724
3024,104.4708412
3025,103.4759869
3026,103.2317091
3027,104.1972363
3028,102.8410744
3029,103.1888887
3030,102.0448479
3031,102.0313274
3032,101.0247921
3033,101.7991678
3034,101.2401967
3035,102.1707242
3036,101.8355013
3037,103.5562443
3038,102.5963199
3039,103.1445404
3040,103.072732
3041,104.8004502
3042,104.1295445
3043,104.7453787
3044,103.7644688
3045,103.6949631
3046,102.6161156
3047,103.7937041
3048,102.9712587
3049,103.9693666
3050,104.9044829
3051,105.9235498
3052,106.1920335
3053,107.7635229
3054,109.4841789
3055,110.650083
3056,114.5898791
3057,116.0494778
3058,118.7538241
3059,120.1528082
3060,120.8291633
3061,117.8062352
3062,116.9767548
3063,117.1356438
3064,107.4809919
3065,88.46268925
3066,103.6798569
3067,158.7058286
3068,197.1980445
3069,219.4501143
3070,231.21039
3071,224.2829792
3072,208.0828601
3073,174.0761885
3074,125.8154548
3075,80.41250587
3076,79.64827126
3077,103.2383424
3078,102.872676
3079,104.3881402
3080,109.4816957
3081,110.7057715
3082,114.6571389
3083,117.2122017
3084,122.4782597
3085,126.7162992
3086,133.094228
3087,140.2413491
3088,149.0341882
3089,157.9435402
3090,166.6081683
3091,173.4033169
3092,175.984015
3093,176.5227482
3094,170.4670567
3095,162.7819978
3096,151.4022945
3097,143.6659595
3098,134.745478
3099,131.6991083
3100,128.7203316
3101,131.2730153
3102,130.6578489
3103,134.8282627
3104,134.3506324
3105,137.033857
3106,136.2951422
3107,139.6147126
3108,138.7920678
3109,142.2631514
3110,142.5990388
3111,146.4617172
3112,146.6670438
3113,150.702201
3114,150.6371351
3115,153.8914019
3116,154.5699207
3117,156.8731615
3118,156.1856763
3119,157.9620856
3120,158.1114468
3121,160.0207229
3122,161.4684478
3123,162.8718579
3124,163.9116783
3125,165.2218505
3126,167.4551151
3127,167.5951147
3128,168.5836217
3129,168.7119569
3130,170.0710933
3131,170.3253069
3132,173.0177495
3133,172.3349142
3134,174.8291996
3135,173.9715225
3136,177.0345879
3137,175.2141965
3138,178.3052399
3139,177.1818024
3140,180.095654
3141,181.7158317
3142,186.203102
3143,185.956116
3144,188.7580769
3145,187.0984866
3146,188.3013808
3147,184.5695488
3148,186.9169371
3149,172.5603731
3150,157.0709627
3151,170.6561035
3152,230.6795039
3153,265.4394732
3154,290.3579475
3155,299.8615015
3156,295.0853281
3157,275.0178
3158,241.2835815
3159,188.094831
3160,143.8687541
3161,141.4841961
3162,166.3047434
3163,162.7266668
3164,165.2372099
3165,168.5169453
3166,169.5169837
3167,172.8712974
3168,173.9342564
3169,177.7221572
3170,180.4517661
3171,186.2303218
3172,190.5939877
3173,199.0904934
3174,205.6662499
3175,215.7687974
3176,220.7920875
3177,225.4517574
3178,222.2675823
3179,218.120727
3180,206.8945836
3181,196.6707868
3182,184.9435077
3183,177.4236532
3184,170.1742116
3185,169.260399
3186,168.2626903
3187,169.9712771
3188,170.1949973
3189,171.7357308
3190,171.7823203
3191,174.3160586
3192,178.0246288
3193,181.483745
3194,185.5629445
3195,189.5465597
3196,194.0919391
3197,196.483476
3198,199.0847875
3199,199.5439143
3200,201.6766827
3201,201.0821835
3202,202.6438698
3203,200.4130114
3204,201.4618432
3205,199.4943753
3206,200.373065
3207,198.351971
3208,199.1723655
3209,197.7689712
3210,200.08588
3211,197.9552147
3212,199.1392433
3213,196.2160298
3214,197.1646087
3215,195.1668036
3216,195.5675853
3217,193.0779523
3218,192.8959637
3219,191.5601631
3220,192.8607118
3221,190.9747642
3222,191.8324046
3223,189.0676967
3224,189.3775399
3225,188.1839008
3226,188.0392086
3227,186.1252565
3228,187.6775486
3229,190.1925144
3230,191.2342712
3231,192.3482904
3232,191.7956498
3233,190.7208806
3234,188.0446676
3235,187.6645329
3236,179.1072098
3237,160.2841363
3238,156.3724975
3239,204.9107454
3240,243.1762545
3241,270.4977294
3242,283.3506342
3243,284.4762712
3244,269.0424872
3245,244.0865441
3246,197.8531929
3247,151.0883747
3248,131.1160947
3249,155.1811344
3250,155.5328529
3251,157.6934365
3252,158.0311713
3253,160.9236818
3254,162.3383143
3255,165.5082229
3256,167.1303072
3257,171.7570879
3258,174.7218474
3259,180.933674
3260,186.3949173
3261,196.34334
3262,203.7253531
3263,212.8928853
3264,217.9904679
3265,217.7290994
3266,213.4630585
3267,203.3951648
3268,193.1197788
3269,180.8933702
3270,172.0305752
3271,165.3239353
3272,162.3119638
3273,160.1321422
3274,161.2227336
3275,161.0755286
3276,162.9586549
3277,162.4245109
3278,165.6385936
3279,164.416821
3280,167.6518932
3281,166.8403311
3282,168.4833251
3283,166.515598
3284,169.0700233
3285,168.0579781
3286,169.0622869
3287,169.1318389
3288,170.3458884
3289,171.2732525
3290,172.4826566
3291,170.9275006
3292,171.8548241
3293,170.6702974
3294,172.0078926
3295,170.5389355
3296,173.0163861
3297,173.8341654
3298,176.533045
3299,179.0571165
3300,177.8352435
3301,179.6949712
3302,179.2539754
3303,181.1602968
3304,179.7146557
3305,181.1128222
3306,181.2662345
3307,181.4569359
3308,181.8504234
3309,181.4746814
3310,179.0733013
3311,181.5343752
3312,180.5595632
3313,184.1464849
3314,185.0084887
3315,188.8704892
3316,189.7861058
3317,191.2868021
3318,188.4145397
3319,189.2042613
3320,185.2317421
3321,184.8769258
3322,165.6456718
3323,153.9342205
3324,188.2833737
3325,235.8679362
3326,262.2870291
3327,278.708438
3328,280.7428807
3329,273.6304694
3330,250.0565375
3331,214.3030979
3332,163.7477751
3333,135.2367605
3334,150.5462687
3335,161.944305
3336,159.195518
3337,162.3231924
3338,164.4834869
3339,167.4712622
3340,169.5033456
3341,171.2836862
3342,176.2971168
3343,178.0751009
3344,184.0185786
3345,189.9061447
3346,199.2109133
3347,205.406151
3348,216.2960264
3349,218.1905373
3350,219.3088302
3351,214.2219806
3352,208.7062336
3353,194.7872241
3354,185.6631025
3355,174.2638923
3356,166.9719174
3357,159.9876175
3358,160.1338684
3359,154.7346448
3360,156.1466057
3361,155.5818786
3362,158.3947727
3363,155.7671118
3364,158.6638921
3365,156.8753969
3366,159.1684718
3367,159.7692216
3368,159.2510716
3369,159.1222311
3370,159.5294895
3371,158.5428237
3372,159.4955466
3373,157.2781003
3374,155.9720886
3375,155.220822
3376,156.2574551
3377,156.2031729
3378,155.4495771
3379,156.8148439
3380,153.6719592
3381,154.6479677
3382,151.2020673
3383,152.9752493
3384,148.2659451
3385,149.1370209
3386,147.1363282
3387,144.5994688
3388,143.1185753
3389,142.6563248
3390,140.4341527
3391,143.9905418
3392,142.7660438
3393,146.8445819
3394,141.9836942
3395,142.3815617
3396,137.5206673
3397,133.5549111
3398,129.7219947
3399,121.4928042
3400,101.5176997
3401,90.42369546
3402,132.2877262
3403,173.2613422
3404,195.1160584
3405,206.9730907
3406,205.5643725
3407,191.9249076
3408,164.2341699
3409,117.3615746
3410,69.82000009
3411,42.0080213
3412,63.01423071
3413,67.0647178
3414,63.45086441
3415,61.37779444
3416,63.45857552
3417,59.87036219
3418,62.37070754
3419,57.61697547
3420,63.61383518
3421,62.24004031
3422,67.52127142
3423,70.63233319
3424,78.31913626
3425,82.86842381
3426,89.47598134
3427,90.37722147
3428,89.72602907
3429,81.94662901
3430,74.01105191
3431,61.49037323
3432,48.34034247
3433,36.74507217
3434,31.3898956
3435,28.33307081
3436,26.59794375
3437,28.23109949
3438,28.43068868
3439,32.83773304
3440,35.13986991
3441,37.29049893
3442,37.53669043
3443,41.50315448
3444,42.9521439
3445,47.73445824
3446,47.57272323
3447,50.94243327
3448,51.20958566
3449,54.95225963
3450,56.83946153
3451,59.61942133
3452,60.44367408
3453,63.50335136
3454,65.48377116
3455,69.79052736
3456,70.91545651
3457,76.80728908
3458,77.43338651
3459,84.10609622
3460,87.86272594
3461,94.9480114
3462,99.32002144
3463,105.0136834
3464,108.2085323
3465,109.1446193
3466,108.8615867
3467,109.7627244
3468,109.7897133
3469,109.1337155
3470,93.14903997
3471,87.08512228
3472,130.1237708
3473,181.3698593
3474,210.1217733
3475,228.1044579
3476,232.3878289
3477,223.1700369
3478,201.4860245
3479,161.0071785
3480,112.9268887
3481,88.38507831
3482,112.0460539
3483,123.2035471
3484,125.4868915
3485,130.0476373
3486,134.2610288
3487,137.3392546
3488,141.825375
3489,144.7311088
3490,151.7463668
3491,155.614771
3492,164.9656852
3493,170.7385322
3494,183.352837
3495,190.9508421
3496,200.2224889
3497,202.8461221
3498,204.2459971
3499,198.8649545
3500,192.0596837
3501,180.5690764
3502,172.3651783
3503,162.7929908
3504,158.7662407
3505,156.6392675
3506,157.3957444
3507,157.0076866
3508,160.2863126
3509,161.8236633
3510,164.2444335
3511,165.6232692
3512,167.1769368
3513,169.0172832
3514,169.6828216
3515,171.942778
3516,172.4264861
3517,174.7609903
3518,176.0955218
3519,178.614193
3520,180.7528865
3521,184.005804
3522,184.1305443
3523,187.0221575
3524,185.4661966
3525,188.3065337
3526,187.5104843
3527,190.3205108
3528,189.04658
3529,191.5279255
3530,191.0372218
3531,194.5162413
3532,194.6828795
3533,198.3413357
3534,201.3634666
3535,206.1081893
3536,207.8575474
3537,211.1756889
3538,208.9507056
3539,208.6045032
3540,205.3538785
3541,207.1358738
3542,199.3001595
3543,183.1054331
3544,184.5028054
3545,231.9980747
3546,274.9851926
3547,300.0165881
3548,313.3883123
3549,312.1749197
3550,298.8310306
3551,271.200395
3552,227.327355
3553,178.5731776
3554,163.4739956
3555,183.3328792
3556,189.2360405
3557,186.3443071
3558,190.6740364
3559,189.2788173
3560,193.053761
3561,193.973202
3562,198.7458196
3563,199.7864699
3564,205.5101307
3565,208.783898
3566,218.4096213
3567,223.9048175
3568,233.6913923
3569,237.9324925
3570,243.075689
3571,240.3028056
3572,235.7257196
3573,224.129984
3574,212.8279768
3575,200.0131184
3576,191.4779808
3577,183.8938896
3578,180.4170034
3579,178.6161393
3580,178.1346078
3581,177.6973539
3582,177.1412003
3583,176.8158477
3584,176.3389416
3585,177.9203207
3586,177.3129147
3587,179.4234314
3588,178.7413728
3589,180.7633209
3590,179.0579708
3591,180.5926991
3592,178.3279245
3593,180.4547177
3594,178.1992444
3595,179.8108942
3596,177.1708012
3597,179.8873638
3598,177.6878159
3599,179.5931536
3600,176.7852007
3601,178.2266645
3602,176.1459998
3603,178.3636716
3604,175.3575852
3605,177.6172426
3606,175.9910934
3607,177.4884761
3608,175.7504428
3609,176.6557473
3610,174.6846141
3611,175.4640269
3612,174.7259803
3613,175.134781
3614,174.2731621
3615,174.7402448
3616,174.2142821
3617,174.5974347
3618,174.6216057
3619,176.7716279
3620,178.9426429
3621,179.640449
3622,181.4315135
3623,179.8915505
3624,179.0765292
3625,176.0214229
3626,177.6796005
3627,166.2375246
3628,149.6649217
3629,154.7006834
3630,212.7014991
3631,248.2664289
3632,274.9199175
3633,283.7692035
3634,281.8842332
3635,262.7498089
3636,232.6667119
3637,180.4460383
3638,134.7731824
3639,122.5221982
3640,150.1943064
3641,146.0132618
3642,148.9231563
3643,150.462381
3644,154.7708284
3645,156.3263734
3646,159.4996213
3647,161.738143
3648,166.3333203
3649,170.287442
3650,176.5982193
3651,182.5220305
3652,190.1265023
3653,199.1458879
3654,205.5941641
3655,209.413073
3656,208.5326988
3657,205.4984517
3658,196.9980147
3659,188.3157507
3660,176.7080683
3661,168.8836162
3662,161.5533014
3663,160.0015782
3664,156.5034407
3665,158.2593891
3666,157.4465476
3667,160.5218253
3668,159.6553883
3669,163.4812392
3670,163.0600165
3671,167.4849513
3672,167.1872571
3673,170.402377
3674,169.5405587
3675,172.0190691
3676,170.1339593
3677,171.8339291
3678,170.0303861
3679,172.1126125
3680,170.6610525
3681,173.1278853
3682,172.1728092
3683,173.3739188
3684,173.4375128
3685,174.0838062
3686,173.6415647
3687,174.0850621
3688,174.5402444
3689,174.7692881
3690,175.3759836
3691,175.8264562
3692,177.0601591
3693,176.4756825
3694,177.9285255
3695,176.1668572
3696,177.9809911
3697,177.0584885
3698,179.5462609
3699,177.7053556
3700,180.3935913
3701,178.8953307
3702,183.6091945
3703,183.3580282
3704,186.8690655
3705,184.9722015
3706,187.2175157
3707,184.7775238
3708,185.7151225
3709,183.2821125
3710,179.3082971
3711,160.1992855
3712,161.2114864
3713,209.6619165
3714,251.4573139
3715,275.8471294
3716,290.7870514
3717,289.9414171
3718,276.5573273
3719,249.0683453
3720,205.5909872
3721,156.6824124
3722,139.969635
3723,163.298816
3724,164.7048979
3725,166.6261438
3726,169.004265
3727,172.0886817
3728,173.2569879
3729,178.3483865
3730,179.7078482
3731,185.4239349
3732,188.8906287
3733,196.6276744
3734,202.5652173
3735,213.6938884
3736,220.8575293
3737,231.1843139
3738,233.5647146
3739,236.322767
3740,228.7078302
3741,223.1301825
3742,210.8951829
3743,202.8257073
3744,191.481143
3745,187.148233
3746,181.7197692
3747,182.5453609
3748,180.6017232
3749,182.5298778
3750,181.4464019
3751,184.2370072
3752,185.9134123
3753,188.1212778
3754,188.2732012
3755,190.6535454
3756,191.2063716
3757,192.7755518
3758,193.0929588
3759,192.9441454
3760,193.9258828
3761,194.9146055
3762,197.9126632
3763,197.7521788
3764,200.3889017
3765,200.7412585
3766,202.4665674
3767,201.6021207
3768,202.6537473
3769,200.7986323
3770,203.0880148
3771,201.8715956
3772,204.9325473
3773,204.685787
3774,207.6697972
3775,206.530269
3776,210.3581142
3777,208.3631106
3778,210.1489569
3779,209.1562965
3780,210.7556738
3781,210.907477
3782,216.4346125
3783,216.8545059
3784,219.9923221
3785,219.6895831
3786,221.5127259
3787,216.7740977
3788,215.8140002
3789,215.2478507
3790,203.4462854
3791,186.432589
3792,199.3302968
3793,251.9016462
3794,285.9998173
3795,307.4895866
3796,316.0982491
3797,311.0192557
3798,293.5206728
3799,264.1526408
3800,214.5468124
3801,173.3722552
3802,170.0088518
3803,195.0603621
3804,190.0326455
3805,194.6179627
3806,194.3034962
3807,197.1428656
3808,197.6186146
3809,201.1246644
3810,202.2460977
3811,207.141423
3812,210.71039
3813,219.4215656
3814,224.0627915
3815,235.1305889
3816,239.6272769
3817,247.1729119
3818,246.8910594
3819,244.860943
3820,237.2923712
3821,229.0850937
3822,217.2927298
3823,209.1833461
3824,200.2277981
3825,193.9179377
3826,188.0579641
3827,185.5383192
3828,180.6014042
3829,177.4500388
3830,173.7275641
3831,172.5272419
3832,171.783795
3833,172.0776372
3834,177.7561197
3835,178.0895672
3836,181.2295604
3837,180.8334174
3838,182.0503387
3839,179.0131369
3840,179.2300516
3841,178.4562708
3842,177.9528725
3843,175.899361
3844,178.4985561
3845,174.8179932
3846,176.1607425
3847,171.7785434
3848,174.1889129
3849,168.5176446
3850,172.6622605
3851,171.9350774
3852,175.1658987
3853,175.6555058
3854,177.5133652
3855,178.4551751
3856,181.9750457
3857,182.7886141
3858,185.0147768
3859,182.059143
3860,185.7887781
3861,182.8284685
3862,182.1292029
3863,181.1245751
3864,175.1572365
3865,157.3134602
3866,153.8962248
3867,199.9498723
3868,239.6515267
3869,265.6445596
3870,280.4814002
3871,280.2716372
3872,267.8101008
3873,243.9266556
3874,203.0828189
3875,158.1201434
3876,142.3765503
3877,169.6958811
3878,171.8263963
3879,175.1014395
3880,173.5210106
3881,177.1853293
3882,177.5512743
3883,179.9428508
3884,183.3390932
3885,188.1106069
3886,194.2154912
3887,202.5254504
3888,207.7468748
3889,219.7421606
3890,222.5323039
3891,234.4226941
3892,235.3527234
3893,235.4831888
3894,229.6066623
3895,220.1660456
3896,208.9888228
3897,199.49458
3898,193.2054426
3899,187.3382379
3900,183.7134615
3901,183.5874916
3902,182.1841441
3903,181.9416209
3904,180.5825477
3905,180.6220614
3906,181.0695307
3907,183.9062483
3908,187.1998414
3909,187.9036788
3910,191.3604427
3911,190.8288609
3912,190.9266399
3913,189.4393325
3914,190.0732376
3915,186.5323042
3916,188.8561746
3917,186.1264527
3918,185.6181326
3919,184.3638986
3920,185.4290276
3921,185.7925237
3922,184.2352401
3923,184.1162162
3924,183.4447291
3925,179.3862759
3926,183.5166316
3927,181.1341971
3928,181.001149
3929,181.1804449
3930,180.9774743
3931,178.4481454
3932,172.2614646
3933,168.962903
3934,163.1561899
3935,145.0720686
3936,126.8084702
3937,146.477272
3938,197.5819531
3939,228.5724035
3940,245.3227688
3941,248.8866685
3942,235.7931856
3943,217.0423813
3944,175.76011
3945,121.699271
3946,79.22117704
3947,83.62419855
3948,100.1554363
3949,94.39527371
3950,91.88686251
3951,90.73976087
3952,86.08681178
3953,88.84879162
3954,81.03035431
3955,82.5079342
3956,80.29555409
3957,80.94095875
3958,81.4721633
3959,83.60707852
3960,84.0030683
3961,87.02374958
3962,84.92322698
3963,82.6036001
3964,71.41914751
3965,62.53773114
3966,43.92903179
3967,30.29235976
3968,14.32235615
3969,0.443261089
3970,-8.235382585
3971,-13.37556218
3972,-17.8770427
3973,-21.48809991
3974,-25.68656278
3975,-28.70320525
3976,-32.8154321
3977,-35.09315909
3978,-37.82776807
3979,-41.46214539
3980,-41.39723099
3981,-45.81017178
3982,-45.10422704
3983,-49.21881175
3984,-49.65040875
3985,-52.15426707
3986,-51.18027684
3987,-55.7983691
3988,-51.74046981
3989,-55.26532226
3990,-54.37293407
3991,-58.59709584
3992,-54.83757258
3993,-55.5512582
3994,-49.99453852
3995,-49.06486684
3996,-43.16550244
3997,-43.62511964
3998,-40.18264054
3999,-40.87069609
4000,-42.56108955
4001,-44.82723859
4002,-42.83465529
4003,-57.05419538
4004,-70.10357278
4005,-46.34643494
4006,13.62516185
4007,49.88346797
4008,71.86204664
4009,85.45832829
4010,80.02198332
4011,65.72783168
4012,34.80196286
4013,-12.07028991
4014,-45.42506705
4015,-32.79149761
4016,-5.682414211
4017,-3.202690523
4018,1.006613582
4019,9.798678036
4020,13.4532117
4021,22.07510349
4022,26.72030739
4023,37.14172256
4024,44.33469508
4025,55.99386606
4026,67.57146023
4027,80.65719927
4028,91.57278423
4029,103.7494132
4030,108.8840925
4031,112.5852052
4032,108.5427233
4033,104.0084167
4034,93.29692182
4035,86.22646056
4036,82.01846852
4037,84.20440931
4038,89.90316416
4039,101.0541557
4040,111.7785234
4041,123.8385811
4042,133.921951
4043,140.6976088
4044,146.4383206
4045,148.8153817
4046,153.0921892
4047,156.0123649
4048,160.7367365
4049,163.3795009
4050,167.5654137
4051,172.3783374
4052,176.0490763
4053,171.475061
4054,167.483806
4055,153.7093141
4056,142.7250104
4057,130.1416739
4058,125.4907072
4059,119.6509248
4060,121.673627
4061,126.004004
4062,131.3856777
4063,132.317458
4064,137.018461
4065,135.7497647
4066,139.4087994
4067,143.0095423
4068,152.591666
4069,159.2390331
4070,169.9167007
4071,179.8064928
4072,189.4328843
4073,195.5487744
4074,201.3243292
4075,203.2677273
4076,203.8917556
4077,204.4295685
4078,205.1724867
4079,191.8687707
4080,179.6163209
4081,208.5037603
4082,262.3329079
4083,291.4394569
4084,308.9865239
4085,313.170001
4086,302.670461
4087,283.3317453
4088,247.5384974
4089,201.0506051
4090,169.5603901
4091,186.0072141
4092,208.4144229
4093,210.4067114
4094,216.2497961
4095,223.1768009
4096,226.8147703
4097,233.2732321
4098,236.1815806
4099,242.679678
4100,245.3525768
4101,252.428762
4102,256.8732301
4103,265.6813423
4104,272.5500286
4105,281.5772503
4106,286.0706553
4107,288.9836126
4108,286.4187528
4109,281.079964
4110,271.6689367
4111,262.726412
4112,253.9214266
4113,247.6479321
4114,245.4746235
4115,244.7535515
4116,247.6548517
4117,250.8871422
4118,257.0238789
4119,262.4566327
4120,270.3858737
4121,276.4596427
4122,285.3935767
4123,290.7540517
4124,298.7299102
4125,302.6964576
4126,309.8214795
4127,312.6225234
4128,319.5633955
4129,322.056724
4130,327.6013188
4131,329.1016597
4132,334.1380996
4133,334.2864136
4134,337.8356642
4135,337.5970392
4136,340.808301
4137,341.5393654
4138,345.2564189
4139,346.0247996
4140,349.1567635
4141,350.1745272
4142,352.5652429
4143,352.2776412
4144,353.5191803
4145,353.2572067
4146,353.9719447
4147,354.2484166
4148,354.3687266
4149,354.4377333
4150,353.7864608
4151,354.3962934
4152,352.5888252
4153,353.2942017
4154,351.7571432
4155,352.3040047
4156,351.4685692
4157,353.059705
4158,354.2405897
4159,357.141747
4160,356.5417108
4161,358.5804042
4162,355.2204736
4163,355.2101796
4164,349.9364851
4165,350.0823734
4166,339.6198905
4167,324.9708808
4168,328.4291371
4169,348.2556457
4170,395.0892005
4171,418.640617
4172,431.5603773
4173,433.5477613
4174,419.5514383
4175,395.7601901
4176,352.8221491
4177,309.5344343
4178,290.4052245
4179,287.53242
4180,305.633947
4181,297.3322419
4182,299.6272741
4183,298.0924386
4184,297.5902535
4185,296.652152
4186,297.7979706
4187,298.2235099
4188,301.4485759
4189,303.2144407
4190,308.8380901
4191,311.8766533
4192,318.8406587
4193,321.0703468
4194,323.9364451
4195,318.5950511
4196,314.4401162
4197,302.0451267
4198,290.1769283
4199,274.3762925
4200,263.6526187
4201,251.329851
4202,246.4919433
4203,240.1644998
4204,238.4454514
4205,234.565572
4206,234.4688924
4207,230.7009144
4208,229.7487594
4209,226.2231453
4210,225.5903501
4211,222.7267472
4212,221.8864869
4213,219.2979323
4214,218.7000665
4215,217.0136353
4216,214.805045
4217,213.1395728
4218,211.5044012
4219,210.3074587
4220,208.4624721
4221,207.4426775
4222,205.0452551
4223,204.8156455
4224,202.9123875
4225,202.1676346
4226,199.1478233
4227,198.9368772
4228,197.0662292
4229,198.8995575
4230,196.1151455
4231,198.7013968
4232,196.5813154
4233,197.4542421
4234,195.1546802
4235,195.6733217
4236,192.1196638
4237,192.3678824
4238,189.8445218
4239,191.3701386
4240,188.4155274
4241,192.8245604
4242,191.7767419
4243,193.7801591
4244,193.1029394
4245,193.4676781
4246,190.2077186
4247,189.7402668
4248,188.3427579
4249,184.6119328
4250,166.3123177
4251,158.8285257
4252,199.2981605
4253,242.3178714
4254,268.188409
4255,284.2780595
4256,286.4865726
4257,273.902541
4258,249.9222657
4259,207.4897472
4260,158.2716723
4261,132.3473258
4262,152.3553491
4263,157.8878746
4264,159.0124683
4265,160.1696515
4266,163.2569461
4267,161.4770804
4268,166.1167976
4269,165.185436
4270,170.6945923
4271,173.6886391
4272,181.9693647
4273,187.4249222
4274,198.0226578
4275,203.5317975
4276,214.0806067
4277,216.4988279
4278,219.7842027
4279,212.2840213
4280,205.5857164
4281,194.2836789
4282,183.1727697
4283,170.6842327
4284,163.7015212
4285,158.0264846
4286,157.0461163
4287,156.3733924
4288,157.9011657
4289,159.4056202
4290,159.8797674
4291,162.0671987
4292,161.5413392
4293,162.9152262
4294,162.5315721
4295,164.1828572
4296,164.4308493
4297,166.6159412
4298,165.703099
4299,169.3660286
4300,166.0452817
4301,168.8737015
4302,166.8186645
4303,169.8498669
4304,167.5733878
4305,170.8563536
4306,170.2698397
4307,172.3080174
4308,171.3601993
4309,175.5405822
4310,172.9237511
4311,176.7008375
4312,176.1492769
4313,179.0032915
4314,178.3002044
4315,180.226478
4316,182.2972796
4317,185.9997612
4318,187.0495905
4319,189.3557946
4320,188.3916097
4321,187.9262619
4322,187.2814368
4323,187.1773798
4324,180.5255291
4325,161.8900019
4326,162.9234777
4327,211.5513411
4328,250.2677631
4329,272.9888816
4330,286.3556571
4331,284.230608
4332,272.9353896
4333,245.6984259
4334,205.0745265
4335,156.8492139
4336,146.8290371
4337,168.4009285
4338,173.299141
4339,171.3139274
4340,175.3287105
4341,176.4343716
4342,181.1810816
4343,181.9767385
4344,187.4996564
4345,188.1017947
4346,197.7669179
4347,199.8189397
4348,210.3418443
4349,215.9207149
4350,224.7746066
4351,229.9082191
4352,234.7294808
4353,231.219715
4354,225.9360812
4355,215.1139614
4356,206.0191332
4357,193.7378087
4358,185.8970632
4359,178.8301791
4360,175.9218
4361,175.1905721
4362,176.3078516
4363,177.007861
4364,176.7031978
4365,179.6829247
4366,179.0099687
4367,180.7006264
4368,180.2677456
4369,181.5644758
4370,182.714352
4371,185.2721534
4372,183.422023
4373,184.2012532
4374,183.0434074
4375,185.0277702
4376,181.5156087
4377,184.2481948
4378,180.7080725
4379,183.0607082
4380,182.7047223
4381,184.8708584
4382,184.1116066
4383,185.277736
4384,189.8727866
4385,192.3466181
4386,192.6363033
4387,194.7441613
4388,192.1666828
4389,189.8759441
4390,186.8066377
4391,186.4156421
4392,176.3113559
4393,158.2630051
4394,162.1960047
4395,213.7327607
4396,252.749677
4397,276.3982733
4398,289.8883885
4399,283.8889679
4400,273.1529717
4401,241.2188216
4402,196.7951357
4403,149.3481615
4404,139.7496643
4405,164.2490641
4406,165.8743456
4407,164.5508933
4408,169.3906151
4409,168.7128471
4410,173.9395252
4411,170.3176893
4412,177.0035587
4413,176.8409141
4414,185.1118599
4415,187.8956198
4416,196.2690981
4417,203.4188181
4418,213.2701644
4419,217.2077501
4420,218.383095
4421,214.0269729
4422,208.5239968
4423,195.9091095
4424,186.3548268
4425,174.7213171
4426,166.8336842
4427,161.5218232
4428,160.3148783
4429,157.8281753
4430,157.6585162
4431,159.3606189
4432,157.8809251
4433,159.2683239
4434,159.3480717
4435,160.7144982
4436,159.6520275
4437,161.0580897
4438,160.7205573
4439,160.5881303
4440,160.9475517
4441,162.066888
4442,161.0813321
4443,161.4360744
4444,159.373577
4445,161.2691146
4446,160.5096501
4447,163.2933037
4448,165.8275337
4449,169.7300466
4450,170.0964233
4451,172.9523292
4452,171.2441143
4453,169.722389
4454,166.1749951
4455,165.5716897
4456,159.4881563
4457,142.1365837
4458,134.3094524
4459,177.354144
4460,223.1121195
4461,251.8770498
4462,266.3133329
4463,269.2088107
4464,256.8735113
4465,231.2515264
4466,190.0630709
4467,139.326852
4468,117.0101855
4469,138.6235999
4470,148.7871209
4471,146.9086768
4472,151.4544848
4473,153.2660061
4474,157.7838228
4475,157.6023564
4476,163.3019903
4477,165.346622
4478,172.6010282
4479,176.5360646
4480,186.7764872
4481,192.4318234
4482,204.0078716
4483,207.6935051
4484,213.0691072
4485,207.27454
4486,203.7433666
4487,190.0979627
4488,181.1402385
4489,168.5018164
4490,161.6536132
4491,155.9732533
4492,155.5609565
4493,152.9924674
4494,155.6081181
4495,156.3543196
4496,157.8347707
4497,158.2709376
4498,160.6045315
4499,160.968426
4500,161.9103812
4501,164.6565628
4502,164.8759161
4503,165.9088037
4504,164.8041452
4505,168.0584617
4506,166.7067263
4507,169.8491282
4508,169.1337387
4509,170.3507494
4510,170.9150774
4511,174.649568
4512,176.3327553
4513,181.0928741
4514,181.7830432
4515,185.9161412
4516,184.4477954
4517,186.501602
4518,182.3782508
4519,181.3947583
4520,180.3180313
4521,168.3508591
4522,149.7682661
4523,167.010865
4524,221.6520813
4525,257.5893147
4526,277.7643072
4527,288.6712301
4528,281.8695314
4529,263.9046519
4530,230.830211
4531,180.3128652
4532,139.2104635
4533,140.6838032
4534,165.4951217
4535,163.712046
4536,165.7005124
4537,168.4862167
4538,169.8453124
4539,171.0109234
4540,174.3420584
4541,175.7757291
4542,181.6429903
4543,185.0487003
4544,193.2212832
4545,200.0512419
4546,210.0373557
4547,215.5246259
4548,220.666922
4549,218.6483567
4550,216.704373
4551,205.3268533
4552,196.5996598
4553,182.8141745
4554,175.2618095
4555,167.2805168
4556,165.5043598
4557,162.8727308
4558,164.1804905
4559,163.4649315
4560,164.6537881
4561,163.3881126
4562,164.2902499
4563,163.968629
4564,164.7588823
4565,164.343993
4566,165.7915882
4567,166.2018571
4568,167.7263805
4569,168.4350131
4570,168.6051903
4571,169.6401712
4572,170.3301781
4573,170.9152623
4574,171.043495
4575,171.0598164
4576,171.3604973
4577,171.9199334
4578,172.31155
4579,172.4863664
4580,173.20897
4581,173.7124541
4582,173.6821214
4583,174.1016755
4584,174.6680769
4585,174.6004722
4586,174.4675566
4587,173.6213809
4588,173.8054752
4589,173.6259493
4590,174.0827727
4591,173.8286552
4592,173.6397809
4593,173.3157105
4594,173.0942063
4595,173.1081419
4596,174.4087868
4597,174.159288
4598,177.6300923
4599,179.6136802
4600,181.5296988
4601,182.8652697
4602,182.3593762
4603,179.5597476
4604,176.9256125
4605,175.219239
4606,171.3147115
4607,152.4148194
4608,139.9904794
4609,178.2094771
4610,226.2233629
4611,254.8759172
4612,271.9620619
4613,274.4794167
4614,263.4210236
4615,238.9943104
4616,197.6771826
4617,144.4765675
4618,114.1034638
4619,131.7583414
4620,140.8118057
4621,138.1869525
4622,140.2777027
4623,141.2822069
4624,142.1631726
4625,144.2189702
4626,145.6360315
4627,148.9319042
4628,152.6310329
4629,157.6774788
4630,162.9407182
4631,170.5512444
4632,177.7888119
4633,185.2128691
4634,188.6812344
4635,189.6553947
4636,184.352147
4637,177.2121039
4638,167.011419
4639,156.0391855
4640,145.0179984
4641,137.8989076
4642,132.2343423
4643,130.5231733
4644,129.2805068
4645,130.3828688
4646,131.084257
4647,132.5175754
4648,133.5126887
4649,133.4681562
4650,133.3047545
4651,133.6238324
4652,133.2482963
4653,133.6443024
4654,133.842185
4655,134.8675789
4656,136.93722
4657,137.1211156
4658,139.0206145
4659,139.8082022
4660,141.3976664
4661,141.9451961
4662,143.3318339
4663,142.9865652
4664,143.6646087
4665,145.2889989
4666,147.2071175
4667,148.069294
4668,150.483927
4669,151.6514253
4670,153.5672112
4671,153.5459211
4672,154.6155395
4673,154.9531905
4674,156.4517269
4675,158.066776
4676,159.7237835
4677,161.6814774
4678,163.4527055
4679,164.3381576
4680,165.5546
4681,166.4166995
4682,167.8405938
4683,169.3623851
4684,169.9284847
4685,170.6973397
4686,172.449895
4687,173.3376399
4688,173.2370391
4689,174.3065705
4690,175.0637817
4691,175.9748287
4692,179.7739644
4693,182.999702
4694,185.2650481
4695,187.4487869
4696,188.8982694
4697,188.7883309
4698,187.9370865
4699,189.1931081
4700,185.5283501
4701,169.318148
4702,163.5135212
4703,208.2473738
4704,253.9415807
4705,281.514599
4706,298.8614787
4707,301.4531365
4708,289.8116673
4709,265.0280134
4710,223.5776691
4711,172.9058859
4712,148.2947379
4713,169.8607105
4714,176.1119826
4715,175.2117621
4716,179.9245753
4717,182.730647
4718,185.3805264
4719,188.9278329
4720,192.0578997
4721,195.411718
4722,200.1804806
4723,206.1287137
4724,212.7109767
4725,220.5799491
4726,229.8661544
4727,237.3015568
4728,242.454882
4729,243.3611335
4730,239.4631824
4731,231.8939024
4732,222.1055333
4733,211.0094217
4734,201.1301036
4735,194.1738779
4736,189.8563208
4737,186.9303924
4738,186.4240163
4739,185.9013405
4740,185.7516168
4741,186.4317237
4742,186.9043687
4743,187.2720911
4744,187.5186247
4745,188.4691346
4746,188.8251892
4747,188.3094754
4748,187.989559
4749,187.156822
4750,185.6107942
4751,184.9924975
4752,184.0804963
4753,182.7255902
4754,181.1189412
4755,179.9668177
4756,179.4953855
4757,176.9166807
4758,174.191122
4759,172.1811971
4760,169.3274579
4761,166.9888521
4762,163.66422
4763,161.9293368
4764,158.9310225
4765,156.4385643
4766,154.1908537
4767,151.4139956
4768,148.2641787
4769,146.3427827
4770,143.5566067
4771,140.7610584
4772,137.5273355
4773,135.8529964
4774,132.9036296
4775,130.0824639
4776,127.3941378
4777,123.6219156
4778,120.9475904
4779,118.1800307
4780,115.1093977
4781,112.3768045
4782,109.7397433
4783,108.8462853
4784,106.7546886
4785,105.145602
4786,105.3197305
4787,103.8108723
4788,102.4931576
4789,99.80246896
4790,96.10478849
4791,91.72180197
4792,87.24555041
4793,84.59914477
4794,67.47022237
4795,48.78184841
4796,68.21235236
4797,118.3398287
4798,148.8052991
4799,168.0562887
4800,173.5613643
4801,166.3065489
4802,146.1659269
4803,112.1838405
4804,62.36256308
4805,23.71146363
4806,28.46827406
4807,47.62368651
4808,45.55531024
4809,47.4752882
4810,49.53977881
4811,52.35951513
4812,55.81326607
4813,57.94767775
4814,63.93290093
4815,68.29574529
4816,73.71220572
4817,80.29182505
4818,88.03228395
4819,97.28322232
4820,104.6646963
4821,111.4634186
4822,113.8238898
4823,109.4174815
4824,103.9248272
4825,93.3645579
4826,80.63179991
4827,69.1018279
4828,56.76298417
4829,50.2400093
4830,43.1599022
4831,40.19635367
4832,38.34235992
4833,35.96854168
4834,36.88843654
4835,37.20459884
4836,38.92867102
4837,42.49191224
4838,43.43509399
4839,48.75357758
4840,50.41702856
4841,53.18538039
4842,55.00966761
4843,55.1113563
4844,54.59298551
4845,54.51749776
4846,57.58186873
4847,63.49705121
4848,71.04859816
4849,83.7679732
4850,95.3684637
4851,110.9992396
4852,125.1778026
4853,137.1535883
4854,145.0571051
4855,154.3685165
4856,163.5167776
4857,172.2594262
4858,179.7270166
4859,187.1922843
4860,193.5526598
4861,202.3815378
4862,207.5740599
4863,212.0626298
4864,213.9521057
4865,221.0071057
4866,225.0294486
4867,230.1846616
4868,234.0042085
4869,239.3785311
4870,244.1048096
4871,249.1271359
4872,253.2263936
4873,257.2417246
4874,261.5041532
4875,267.1091993
4876,266.7212611
4877,269.1957768
4878,268.8964245
4879,268.8790818
4880,272.0948596
4881,263.2477068
4882,246.9599684
4883,253.00792
4884,298.0674955
4885,342.329857
4886,363.2426058
4887,378.2648483
4888,377.2731715
4889,364.2860995
4890,340.8351876
4891,295.3982493
4892,252.8190958
4893,244.1677039
4894,261.9055604
4895,268.748333
4896,266.6959912
4897,272.259033
4898,271.7381482
4899,274.6857964
4900,277.4702638
4901,280.7022681
4902,284.0788309
4903,287.9565195
4904,291.5894539
4905,296.0242648
4906,304.8530237
4907,310.117662
4908,313.5337861
4909,314.8054062
4910,312.0910306
4911,304.5141638
4912,290.9838941
4913,274.4979325
4914,259.8604479
4915,244.82202
4916,234.1006053
4917,223.4841068
4918,215.555227
4919,209.0668957
4920,202.2172634
4921,192.1741769
4922,182.8256976
4923,172.0366633
4924,163.117102
4925,154.1043061
4926,144.5716705
4927,136.8222347
4928,127.8117482
4929,120.8991587
4930,114.1660399
4931,106.6403914
4932,99.37114834
4933,91.83150094
4934,83.73940576
4935,78.25569043
4936,71.87921055
4937,67.48873504
4938,59.48985776
4939,54.95252502
4940,49.91401402
4941,44.72399519
4942,36.64818506
4943,31.42552103
4944,23.34271573
4945,18.57225453
4946,11.53140425
4947,8.220149658
4948,4.00212294
4949,3.289937014
4950,2.414570274
4951,6.280456925
4952,5.722100141
4953,6.849058026
4954,5.136840225
4955,5.888501546
4956,6.092369017
4957,9.969878184
4958,3.553698115
4959,-11.32403313
4960,-9.66330029
4961,44.42632327
4962,87.09171865
4963,112.6125795
4964,126.6042927
4965,126.2719974
4966,113.4734971
4967,84.54213509
4968,37.62708146
4969,-11.70289249
4970,-27.37553639
4971,-5.218334371
4972,-5.21732464
4973,-10.66385851
4974,-15.0451415
4975,-25.66884419
4976,-36.86364091
4977,-48.89760568
4978,-56.9548892
4979,-60.98419906
4980,-56.95523892
4981,-49.06847114
4982,-33.74813581
4983,-12.57000047
4984,7.971763757
4985,21.01237262
4986,26.4655453
4987,23.8115064
4988,20.05722919
4989,12.93463201
4990,8.418110612
4991,7.719762156
4992,14.63214341
4993,29.6027794
4994,48.81117451
4995,67.83543849
4996,85.37250128
4997,102.8000026
4998,119.8848646
4999,134.8764614
5000,145.3831917
5001,155.4074358
5002,163.6088005
5003,171.8777889
5004,178.619949
5005,187.2595667
5006,192.8105885
5007,201.8650861
5008,206.3881472
5009,214.3703725
5010,217.4318791
5011,223.8942918
5012,228.0420344
5013,235.7748568
5014,239.5636145
5015,247.1938606
5016,249.7961188
5017,255.1862764
5018,258.3036646
5019,264.311522
5020,268.8485202
5021,276.0241871
5022,281.120627
5023,288.8604046
5024,282.89388
5025,270.4751122
5026,250.2708491
5027,231.4371576
5028,214.4916159
5029,187.6975601
5030,171.5562109
5031,197.7901331
5032,264.1778911
5033,309.8593469
5034,340.3287022
5035,355.371449
5036,356.0878679
5037,344.2401967
5038,318.2736256
5039,275.8198686
5040,251.2845348
5041,265.4974277
5042,295.8968101
5043,299.3241739
5044,310.3226097
5045,318.5728123
5046,326.3917676
5047,334.2946429
5048,341.9364066
5049,350.1213187
5050,359.7770833
5051,370.4188675
5052,382.3194069
5053,395.7816495
5054,409.0877608
5055,420.7785124
5056,429.3666606
5057,433.1808797
5058,432.5662624
5059,429.1497009
5060,423.031537
5061,415.2840362
5062,408.5551478
5063,405.2155384
5064,402.4889627
5065,400.6481869
5066,399.7281231
5067,399.3535272
5068,399.4381565
5069,399.4505169
5070,398.0036454
5071,398.2071612
5072,399.8954759
5073,402.5698102
5074,404.1555793
5075,406.4429441
5076,409.2105302
5077,411.7007082
5078,412.4589492
5079,413.224145
5080,412.788959
5081,412.2721047
5082,411.0419902
5083,409.3223704
5084,408.0968879
5085,407.2000764
5086,405.7182396
5087,403.8097638
5088,402.4350981
5089,401.2725263
5090,398.592495
5091,392.9544527
5092,384.5075081
5093,374.1631602
5094,363.3642192
5095,353.1247231
5096,342.6031803
5097,337.6807247
5098,334.212764
5099,331.812427
5100,330.3957903
5101,327.8765501
5102,324.3340217
5103,321.1737532
5104,320.1929858
5105,313.375362
5106,296.2244219
5107,303.6282575
5108,333.7453771
5109,382.7785701
5110,404.4923933
5111,417.8332884
5112,415.9993754
5113,401.5336843
5114,374.4573331
5115,331.8238191
5116,285.7637576
5117,271.8295473
5118,280.475778
5119,297.2105674
5120,291.9197187
5121,296.8269868
5122,298.1328722
5123,299.8816558
5124,302.2131693
5125,305.5260027
5126,308.9414329
5127,314.5852839
5128,321.1335809
5129,328.2739462
5130,336.3863236
5131,344.3052161
5132,350.1611781
5133,352.3900921
5134,350.943008
5135,345.0996802
5136,335.9183364
5137,325.408315
5138,315.8516594
5139,307.2320733
5140,301.1043356
5141,297.5943009
5142,295.6390419
5143,294.8888883
5144,295.2786239
5145,294.7032988
5146,294.8412577
5147,294.9862324
5148,295.6136866
5149,294.8332396
5150,294.3091979
5151,293.5870023
5152,293.0559349
5153,292.4712754
5154,292.1476904
5155,291.2133538
5156,290.4865029
5157,289.3586782
5158,288.6900787
5159,286.4643775
5160,285.1757152
5161,283.2483777
5162,281.5984112
5163,280.1465614
5164,280.2075562
5165,279.590203
5166,279.0124888
5167,279.0338313
5168,279.3722176
5169,278.5800159
5170,278.0186153
5171,276.7345856
5172,275.5134798
5173,275.0639467
5174,275.2624205
5175,273.8058922
5176,272.8994704
5177,271.7249789
5178,271.1192707
5179,270.7909029
5180,270.3413465
5181,269.9663718
5182,271.6030514
5183,272.4542052
5184,272.7249114
5185,272.1750882
5186,270.0471976
5187,267.5253523
5188,265.0850772
5189,263.3417897
5190,247.9201847
5191,231.0300095
5192,245.7109674
5193,301.8674164
5194,333.7511569
5195,355.2712467
5196,362.2108889
5197,355.2764432
5198,333.9759969
5199,297.4075114
5200,243.4147367
5201,201.8159405
5202,199.7509241
5203,223.6439426
5204,217.2385874
5205,219.084999
5206,219.1598313
5207,220.2719527
5208,220.4679942
5209,221.2607425
5210,222.4661157
5211,225.4103772
5212,229.6693326
5213,235.1870432
5214,240.9378438
5215,248.1874509
5216,255.8706484
5217,261.4629307
5218,262.4398227
5219,259.4749694
5220,251.4541742
5221,240.8319961
5222,228.9534061
5223,216.3195332
5224,206.5435061
5225,199.177693
5226,196.1662162
5227,193.8913388
5228,193.6280852
5229,193.1527312
5230,193.001379
5231,192.8150503
5232,193.2184705
5233,192.2419131
5234,191.4821491
5235,190.1932681
5236,189.2749892
5237,188.3683647
5238,187.6178953
5239,186.3709627
5240,185.5528902
5241,184.534375
5242,183.6790034
5243,182.3737689
5244,181.3715401
5245,179.9427638
5246,179.3111643
5247,177.9033164
5248,176.4488953
5249,174.5328925
5250,173.446751
5251,171.3652447
5252,169.9807262
5253,168.2908149
5254,167.7734161
5255,166.8830587
5256,167.3469765
5257,165.7479943
5258,166.5709143
5259,166.2982193
5260,167.0209129
5261,167.6106992
5262,168.1655394
5263,167.7763151
5264,169.1050135
5265,169.8160327
5266,170.6412455
5267,173.7228636
5268,176.3429305
5269,177.1914487
5270,178.5644386
5271,179.2754074
5272,177.8208761
5273,176.4642723
5274,177.2824394
5275,165.7416554
5276,150.34308
5277,167.1309637
5278,221.4106654
5279,255.6950634
5280,279.1146205
5281,288.0679877
5282,284.1029556
5283,266.2544363
5284,234.5155023
5285,186.0655969
5286,146.0958518
5287,145.8674059
5288,168.3615213
5289,166.736798
5290,169.1376756
5291,172.3707337
5292,174.8532086
5293,178.6666739
5294,181.55939
5295,186.5616609
5296,190.0511111
5297,196.2142335
5298,201.7432888
5299,209.8690816
5300,217.9645975
5301,227.3328153
5302,233.9131574
5303,238.8804285
5304,236.2789403
5305,230.5632519
5306,219.7356522
5307,208.9150378
5308,195.9755235
5309,186.0220594
5310,180.2713508
5311,178.2153104
5312,178.4599565
5313,178.588022
5314,178.6881607
5315,180.5295069
5316,181.1121524
5317,181.7879951
5318,183.2796916
5319,184.4870218
5320,186.7642646
5321,189.2652894
5322,190.1113121
5323,191.2067211
5324,191.3277921
5325,193.1970898
5326,192.8566063
5327,192.1804566
5328,192.646485
5329,192.5344156
5330,192.3874002
5331,193.0049384
5332,192.7110353
5333,193.6316065
5334,194.1349074
5335,195.5449738
5336,195.7662247
5337,196.2252651
5338,196.3299322
5339,197.4253186
5340,196.5276596
5341,197.5857469
5342,198.0284133
5343,199.263618
5344,201.4312228
5345,205.0766991
5346,207.775761
5347,208.5238002
5348,207.7123879
5349,207.7517718
5350,204.8494409
5351,203.8142027
5352,202.9538269
5353,187.9582549
5354,172.9719874
5355,203.0952747
5356,251.4120096
5357,279.9408994
5358,297.8240644
5359,303.9496883
5360,295.9051123
5361,275.6064742
5362,243.1376667
5363,193.636202
5364,160.2839345
5365,173.2929918
5366,188.2087536
5367,185.2667544
5368,187.9867392
5369,190.0377144
5370,192.1982443
5371,194.1373354
5372,199.0204539
5373,202.6215256
5374,207.2296131
5375,213.4204303
5376,219.4131242
5377,226.4454265
5378,235.8902926
5379,242.8806267
5380,248.4607095
5381,248.4626946
5382,245.1080479
5383,236.3920698
5384,225.8509236
5385,213.4939476
5386,203.5332086
5387,194.723986
5388,190.7142901
5389,189.0892039
5390,188.8860504
5391,187.2772845
5392,189.1580172
5393,188.5912063
5394,190.4835901
5395,191.2967163
5396,192.9443425
5397,192.8809973
5398,194.8316563
5399,196.2951295
5400,196.6560297
5401,196.9656265
5402,198.1796695
5403,197.0300617
5404,197.2837403
5405,196.9429943
5406,195.9961658
5407,195.4176507
5408,195.4475306
5409,195.7524622
5410,195.7007315
5411,197.7655441
5412,195.7278144
5413,198.8299128
5414,199.2863476
5415,202.6402094
5416,205.1945379
5417,206.7278669
5418,206.219231
5419,204.6126914
5420,201.1693564
5421,198.4252674
5422,195.5646589
5423,189.624793
5424,169.4587885
5425,165.5049083
5426,208.837768
5427,249.909516
5428,272.8903793
5429,283.2069021
5430,280.9336694
5431,265.1359583
5432,237.6692375
5433,191.6570728
5434,140.5609813
5435,119.6700104
5436,137.6508319
5437,139.5477419
5438,135.9201736
5439,133.9103082
5440,132.3689759
5441,129.023441
5442,127.9716039
5443,126.1249028
5444,125.77005
5445,126.1983971
5446,127.8784804
5447,129.808011
5448,135.5673418
5449,139.4688812
5450,140.1606089
5451,137.6145708
5452,131.1524527
5453,118.5434807
5454,104.7829857
5455,87.43973885
5456,71.32260871
5457,57.67865029
5458,47.6384178
5459,39.39539269
5460,34.32019566
5461,29.97692891
5462,27.20476479
5463,24.37664337
5464,21.96343562
5465,17.9931109
5466,16.54493862
5467,16.14569795
5468,12.57164926
5469,12.17006735
5470,11.08551398
5471,8.744548586
5472,9.231079263
5473,8.043961596
5474,5.663343902
5475,4.52748912
5476,4.920775302
5477,4.633394097
5478,0.457917529
5479,3.308057144
5480,1.857503738
5481,2.672678821
5482,6.637035761
5483,8.860132663
5484,10.17879204
5485,11.56504453
5486,10.01657079
5487,8.293258525
5488,3.770412908
5489,6.172979006
5490,-8.958264066
5491,-24.25034573
5492,-1.108859851
5493,56.06523836
5494,92.34890662
5495,116.6768526
5496,125.6225167
5497,122.5518659
5498,106.793544
5499,76.50377032
5500,28.69884136
5501,-5.900974645
5502,3.079635103
5503,29.27469618
5504,32.00121755
5505,38.51560792
5506,44.46123886
5507,51.01291506
5508,58.5622686
5509,64.74798662
5510,74.61201552
5511,82.80471541
5512,93.65941454
5513,105.5817068
5514,118.5832499
5515,132.3074001
5516,144.7494883
5517,154.0796957
5518,158.9390441
5519,158.0874211
5520,156.3243874
5521,148.3352456
5522,141.8099371
5523,136.2170594
5524,133.2115807
5525,135.0406019
5526,139.3730987
5527,143.5773879
5528,148.1243556
5529,153.8997441
5530,160.2508739
5531,164.8864242
5532,170.0417466
5533,174.7331984
5534,180.4106699
5535,185.6662325
5536,190.6373985
5537,194.3055217
5538,198.3209926
5539,204.5112648
5540,208.0954546
5541,212.7566064
5542,216.6648253
5543,219.8201111
5544,223.8938201
5545,227.4686854
5546,229.93167
5547,235.294401
5548,241.1070188
5549,247.1084456
5550,251.1891232
5551,255.5005714
5552,256.9938399
5553,257.9509724
5554,258.7775473
5555,260.1682364
5556,246.4377063
5557,239.8214001
5558,260.666608
5559,319.5677818
5560,352.5505258
5561,375.2372459
5562,382.4274417
5563,377.0418591
5564,357.7145922
5565,325.1704946
5566,275.7336324
5567,244.3107745
5568,247.5172772
5569,274.8869237
5570,271.1493585
5571,276.7078105
5572,278.6112605
5573,282.8107581
5574,284.9309983
5575,290.1094932
5576,292.8940333
5577,300.1890987
5578,305.495788
5579,315.8234395
5580,323.5007581
5581,334.5417208
5582,340.3146138
5583,346.7937718
5584,344.1633684
5585,341.8150356
5586,330.8070316
5587,322.3025032
5588,308.5835245
5589,301.3703713
5590,295.5930973
5591,296.3146604
5592,300.2367206
5593,306.8673651
5594,311.9805198
5595,319.0377629
5596,322.7010207
5597,325.9377311
5598,325.1954037
5599,325.6465544
5600,324.7293852
5601,323.7073542
5602,323.1095143
5603,321.0828074
5604,320.230902
5605,318.3323929
5606,316.7532164
5607,314.5283457
5608,313.0586901
5609,311.0879021
5610,309.2662807
5611,307.540237
5612,305.7955437
5613,303.5892993
5614,302.2734934
5615,300.6523253
5616,298.9076188
5617,297.2771057
5618,295.1664257
5619,293.1489736
5620,291.8867672
5621,290.4474029
5622,289.4462372
5623,288.559326
5624,287.5768304
5625,288.9369828
5626,289.3717169
5627,289.4637963
5628,287.9194893
5629,286.1910665
5630,283.0337157
5631,278.9532965
5632,276.4556071
5633,271.9812298
5634,251.7212962
5635,245.8226874
5636,277.7049285
5637,324.9578328
5638,349.1034951
5639,364.8761681
5640,364.8726538
5641,352.7339127
5642,327.6138146
5643,286.3212278
5644,233.9703491
5645,208.7103789
5646,219.0728114
5647,231.2347401
5648,226.1729106
5649,228.731134
5650,228.8231369
5651,230.3277037
5652,231.2448953
5653,232.9335985
5654,236.1211693
5655,240.0919398
5656,245.1839228
5657,251.4740531
5658,257.9949236
5659,265.9423654
5660,272.7872648
5661,275.1216628
5662,273.2928801
5663,267.8953074
5664,258.5816852
5665,248.1654596
5666,236.1408627
5667,225.894827
5668,218.3317409
5669,215.0111136
5670,213.6694868
5671,212.0854251
5672,211.6715261
5673,212.262293
5674,212.7551256
5675,212.9100032
5676,213.3888522
5677,213.7348548
5678,214.8454109
5679,216.114472
5680,217.0105745
5681,216.034878
5682,217.7654465
5683,216.9972019
5684,217.7254749
5685,216.0201508
5686,217.5712322
5687,216.7307086
5688,218.0113975
5689,217.1871942
5690,218.3116875
5691,216.3033345
5692,218.7122145
5693,215.9322789
5694,217.8656274
5695,216.1253274
5696,218.128585
5697,216.7169222
5698,217.8064464
5699,216.3598343
5700,218.6777759
5701,216.5411547
5702,218.1038711
5703,216.5056955
5704,219.2501985
5705,218.4725728
5706,222.277677
5707,222.4907064
5708,224.9181794
5709,224.9586863
5710,225.2509598
5711,223.202898
5712,221.7655811
5713,221.7920976
5714,209.5249096
5715,192.4185459
5716,208.6338952
5717,264.7396526
5718,298.5750209
5719,322.5922096
5720,330.2877091
5721,326.3141991
5722,305.5341671
5723,273.3415341
5724,220.5964687
5725,179.9772849
5726,177.9338119
5727,202.6782384
5728,197.4646232
5729,201.9409767
5730,201.7110585
5731,205.6069915
5732,205.9341346
5733,210.0981273
5734,210.9451001
5735,215.9901897
5736,219.4991737
5737,226.6398378
5738,232.6406364
5739,241.615797
5740,247.919598
5741,255.6033701
5742,256.7999867
5743,255.0828122
5744,246.8318514
5745,237.0796971
5746,225.3438969
5747,214.3190309
5748,205.4130275
5749,199.5699785
5750,197.3166479
5751,196.0073753
5752,195.777384
5753,194.6219438
5754,194.5061427
5755,192.9381287
5756,193.7244205
5757,191.5922825
5758,192.7655
5759,191.2744076
5760,192.2798023
5761,189.7210763
5762,191.3162165
5763,188.822761
5764,189.3852408
5765,186.4162536
5766,186.5638098
5767,182.0074137
5768,181.8286388
5769,177.1789743
5770,175.8556614
5771,171.4880643
5772,171.3372302
5773,167.2213659
5774,166.086852
5775,161.6143221
5776,159.7851605
5777,155.4292011
5778,153.2480431
5779,148.9736505
5780,145.7318779
5781,142.0542195
5782,138.7984632
5783,134.6056614
5784,132.1004783
5785,128.0778053
5786,126.3208761
5787,126.6571747
5788,124.8606117
5789,124.0057569
5790,120.0087173
5791,117.1165786
5792,110.3409679
5793,107.4767919
5794,100.5916165
5795,80.72743382
5796,65.87722489
5797,103.1272476
5798,144.421548
5799,172.1167851
5800,184.6884836
5801,186.5561994
5802,171.7362897
5803,147.6436411
5804,104.8982945
5805,52.89653592
5806,21.59408428
5807,38.79512358
5808,45.66281606
5809,45.11560348
5810,44.60334546
5811,46.37546216
5812,46.14991014
5813,47.77983881
5814,48.16966711
5815,52.68302724
5816,57.62762794
5817,65.01511167
5818,72.70561637
5819,82.51267964
5820,91.85820699
5821,101.7515063
5822,107.6401331
5823,107.4565062
5824,104.5036346
5825,96.59505597
5826,87.73775882
5827,75.85248898
5828,68.56394128
5829,63.43157922
5830,64.16167112
5831,65.51880437
5832,71.52395981
5833,75.04891783
5834,83.33145615
5835,85.91701543
5836,92.82192259
5837,95.6405685
5838,102.7412698
5839,105.772052
5840,111.1687824
5841,113.4000127
5842,119.0811145
5843,121.5757353
5844,127.7719977
5845,128.7607831
5846,134.7589035
5847,136.4702774
5848,141.8087231
5849,143.7671912
5850,147.4389433
5851,149.4300586
5852,152.3512242
5853,156.064928
5854,159.1585723
5855,162.235917
5856,166.658229
5857,169.7612017
5858,173.9970447
5859,177.3541001
5860,181.9675304
5861,186.6742191
5862,189.4648279
5863,194.7355968
5864,196.6264186
5865,201.6011604
5866,206.5479448
5867,211.6765191
5868,213.3295652
5869,216.9056731
5870,217.9176907
5871,221.9669976
5872,221.7319383
5873,226.7695808
5874,216.0240168
5875,203.2901072
5876,217.8219109
5877,272.7663088
5878,305.8132426
5879,329.1003158
5880,337.1752275
5881,337.4156327
5882,321.0360089
5883,295.0526525
5884,249.6427182
5885,212.5987168
5886,214.333307
5887,239.3196334
5888,239.3688838
5889,243.310892
5890,246.0058266
5891,248.8429698
5892,253.2045543
5893,256.8948097
5894,263.1724947
5895,267.2869989
5896,275.6462507
5897,282.7980407
5898,294.0803511
5899,303.1551996
5900,313.8664279
5901,320.0951394
5902,324.2259167
5903,319.8648694
5904,315.4129069
5905,302.8024328
5906,293.4227293
5907,280.5465014
5908,273.763532
5909,265.9968556
5910,267.2255067
5911,264.4075541
5912,267.3052354
5913,267.6434347
5914,272.0818808
5915,273.0028371
5916,276.7559739
5917,276.1197946
5918,279.5955504
5919,279.1411882
5920,282.0994203
5921,281.6497512
5922,285.0089166
5923,284.5965028
5924,287.1840856
5925,287.7157569
5926,289.3196601
5927,291.2988345
5928,293.5600796
5929,293.7840289
5930,293.0825598
5931,295.0151206
5932,294.0059666
5933,293.9012283
5934,293.4887779
5935,293.7499998
5936,293.6918518
5937,297.0626251
5938,296.6851345
5939,298.7738577
5940,297.8835432
5941,303.8906557
5942,301.5574634
5943,307.5412538
5944,308.6299604
5945,311.3853201
5946,310.3970852
5947,312.3155853
5948,307.7515991
5949,308.3880491
5950,305.4814049
5951,298.4978226
5952,278.9804235
5953,290.5725791
5954,336.5516943
5955,373.3093402
5956,388.7336697
5957,401.3514773
5958,394.882978
5959,381.0392311
5960,350.7548987
5961,307.0789918
5962,267.2445429
5963,259.2212783
5964,280.3938418
5965,281.5989947
5966,278.4755004
5967,283.1468637
5968,283.2797715
5969,284.2891409
5970,283.9535056
5971,289.627175
5972,293.2449328
5973,295.1540386
5974,302.5200197
5975,308.0538442
5976,316.4244878
5977,320.8767017
5978,326.2263426
5979,322.7368384
5980,320.326585
5981,312.5736464
5982,301.3359022
5983,288.1703898
5984,277.3405369
5985,265.4197688
5986,263.5782516
5987,258.4500183
5988,260.8252608
5989,254.9767451
5990,257.4009616
5991,253.6689858
5992,253.1584423
5993,249.7667919
5994,246.9951944
5995,242.7293919
5996,241.8249142
5997,236.3236924
5998,235.7944827
5999,229.0485033
6000,230.4866636
6001,227.9387977
6002,225.108885
6003,223.0668413
6004,220.7381121
6005,218.1156479
6006,212.8474895
6007,210.2226688
6008,207.0570734
6009,204.0243481
6010,202.2480282
6011,202.529963
6012,201.4995471
6013,201.7255671
6014,203.242935
6015,205.9071503
6016,203.3918578
6017,204.9022273
6018,199.5174823
6019,198.0091989
6020,190.8109098
6021,190.3399122
6022,182.2418666
6023,163.7568853
6024,150.1133619
6025,193.4022693
6026,237.6375539
6027,267.9031087
6028,284.0544633
6029,286.9983561
6030,272.7790681
6031,249.8604971
6032,202.8370032
6033,156.0909108
6034,119.9415406
6035,116.2094186
6036,93.67075947
6037,69.36987473
6038,70.7589586
6039,81.39512471
6040,108.5487588
6041,135.6487855
6042,168.6812276
6043,212.5597968
6044,228.6318442
6045,222.6712344
6046,211.7829174
6047,204.0530748
6048,208.9246389
6049,207.8824728
6050,208.8029804
6051,199.4344222
6052,199.0589027
6053,196.191528
6054,189.0514144
6055,180.0022094
6056,176.7059002
6057,169.3606679
6058,171.6797391
6059,170.0990571
6060,173.1244509
6061,172.5134583
6062,178.5015225
6063,178.5198873
6064,183.3844097
6065,183.1836516
6066,188.6961776
6067,187.3742275
6068,193.2457251
6069,193.6160292
6070,198.8208637
6071,198.8088979
6072,203.1955495
6073,204.1439653
6074,207.1412974
6075,209.2248994
6076,206.5905416
6077,213.2056006
6078,210.876595
6079,201.8180023
6080,199.2419197
6081,198.7194227
6082,204.2365647
6083,212.2572129
6084,216.1566114
6085,224.561866
6086,225.1558989
6087,235.5238544
6088,224.7985448
6089,217.9100849
6090,212.8887176
6091,213.1657479
6092,211.0651199
6093,210.2978625
6094,204.6751025
6095,206.5045487
6096,204.2547375
6097,196.9443149
6098,175.7015161
6099,185.7081035
6100,236.1365931
6101,275.1991432
6102,296.6765764
6103,311.2146446
6104,306.6174862
6105,293.5168455
6106,264.5886562
6107,219.7351097
6108,175.6810593
6109,167.9113989
6110,193.1580316
6111,192.3044717
6112,194.0918997
6113,198.0681367
6114,199.8369118
6115,203.1721509
6116,207.2043166
6117,208.7586348
6118,214.166099
6119,217.498975
6120,227.9040827
6121,234.1204054
6122,245.6700377
6123,253.6625684
6124,263.6481072
6125,264.116156
6126,263.4490087
6127,253.2736794
6128,245.5459175
6129,230.289008
6130,221.1509917
6131,208.7961752
6132,205.231547
6133,200.5830227
6134,202.2212077
6135,199.9852439
6136,203.1851898
6137,202.74643
6138,206.3542977
6139,205.2652017
6140,208.2786414
6141,208.1079347
6142,210.466369
6143,210.8714308
6144,211.0433655
6145,209.9076187
6146,210.1378354
6147,209.4986029
6148,208.6052472
6149,208.0569199
6150,207.9257952
6151,208.0371292
6152,206.4537883
6153,207.383292
6154,203.6111322
6155,204.5196637
6156,203.3768613
6157,204.8028421
6158,201.4013355
6159,200.8972255
6160,194.5796051
6161,192.1384462
6162,184.5294373
6163,184.2328031
6164,164.0969931
6165,148.3597699
6166,164.1213837
6167,215.7781052
6168,239.1574492
6169,257.3059854
6170,256.221425
6171,247.04598
6172,220.3833185
6173,184.6973687
6174,127.6827413
6175,87.73103788
6176,87.05206669
6177,103.6061854
6178,93.78501095
6179,93.74471692
6180,89.2988257
6181,86.61750329
6182,83.04340108
6183,80.10100941
6184,78.16558768
6185,76.9551077
6186,77.83321692
6187,78.33835224
6188,82.37494786
6189,84.28335107
6190,88.02156968
6191,86.60594586
6192,84.8313557
6193,74.28752088
6194,63.89985645
6195,46.62174679
6196,33.02429788
6197,15.04920588
6198,5.82003645
6199,-6.493044381
6200,-8.740859064
6201,-14.4665442
6202,-13.08266692
6203,-18.49366906
6204,-16.63427353
6205,-20.73292728
6206,-19.82226123
6207,-22.63887054
6208,-20.35291359
6209,-22.36066877
6210,-18.2821846
6211,-18.50906263
6212,-15.51682778
6213,-16.33345703
6214,-12.24099384
6215,-11.8058826
6216,-8.519959871
6217,-2.338929379
6218,2.951648266
6219,8.652478019
6220,13.07593018
6221,15.65321813
6222,17.17221418
6223,18.24133204
6224,20.94216043
6225,20.43084256
6226,4.691097291
6227,5.314980902
6228,50.20460826
6229,98.65598461
6230,126.2378966
6231,147.7965203
6232,152.0940476
6233,147.5850225
6234,126.483953
6235,94.26398374
6236,47.92746451
6237,34.98721272
6238,57.99568807
6239,70.98781793
6240,72.8610785
6241,83.03969464
6242,86.31155391
6243,94.56708296
6244,98.32378361
6245,108.60961
6246,114.0772567
6247,125.2069027
6248,134.5067114
6249,148.8671094
6250,159.9105181
6251,173.0844165
6252,182.3096422
6253,188.1618787
6254,188.8462653
6255,186.3068936
6256,178.6602798
6257,172.4682221
6258,166.0919874
6259,161.8439843
6260,160.1530762
6261,160.8304509
6262,166.6430458
6263,168.2691443
6264,174.1469791
6265,175.9525449
6266,182.3012592
6267,184.9436408
6268,191.4601647
6269,193.4382331
6270,198.5561296
6271,199.9864008
6272,206.6474426
6273,208.7443637
6274,215.6804538
6275,218.2039429
6276,226.4919855
6277,228.0248064
6278,233.4177618
6279,230.9831993
6280,232.8493232
6281,228.859975
6282,231.1503475
6283,228.8789492
6284,214.8685949
6285,203.7953101
6286,240.9994267
6287,286.7932922
6288,315.2048301
6289,331.9287427
6290,335.5104705
6291,325.9942946
6292,306.6342738
6293,271.1507146
6294,223.9748303
6295,199.2721482
6296,217.128911
6297,232.4401993
6298,234.770161
6299,240.9625462
6300,243.3228053
6301,250.846208
6302,252.6330045
6303,258.5969829
6304,259.4886617
6305,265.9817472
6306,267.0039736
6307,275.9516117
6308,278.4307102
6309,285.224472
6310,285.4541436
6311,286.7304428
6312,278.2957706
6313,271.4648243
6314,256.0324648
6315,243.9357648
6316,226.7971304
6317,220.1573024
6318,206.7971952
6319,204.1620603
6320,198.5292109
6321,198.1131551
6322,195.2006054
6323,196.2344025
6324,197.7600786
6325,196.1039277
6326,185.5223584
6327,170.5165304
6328,146.4640987
6329,122.8894927
6330,100.7228271
6331,83.16222205
6332,71.30556262
6333,71.76359713
6334,81.80437673
6335,91.96403423
6336,101.0024726
6337,107.6819446
6338,116.1982206
6339,119.9336247
6340,127.3683205
6341,131.6095468
6342,121.6875923
6343,117.8029422
6344,165.9392543
6345,217.1315172
6346,254.0440525
6347,274.7817494
6348,288.8411287
6349,282.1569134
6350,270.2326129
6351,236.8327843
6352,196.1252436
6353,173.6414849
6354,200.7334676
6355,213.5690382
6356,219.7263219
6357,225.6341515
6358,233.8986062
6359,238.825106
6360,249.4998324
6361,255.2164866
6362,265.7863174
6363,274.2699023
6364,286.7091722
6365,296.6402907
6366,309.1891122
6367,320.5747833
6368,328.7040119
6369,335.0570531
6370,336.0230976
6371,335.3598053
6372,328.9389107
6373,325.7744521
6374,319.5703173
6375,315.8813769
6376,312.8497513
6377,314.7225413
6378,314.2573458
6379,317.1884177
6380,316.0449014
6381,320.7848351
6382,319.235703
6383,324.6306288
6384,325.3006063
6385,329.9402764
6386,329.5519892
6387,333.9911827
6388,336.2742145
6389,339.2751995
6390,342.1246309
6391,348.0883168
6392,348.5577977
6393,353.0692369
6394,350.370895
6395,350.735477
6396,345.8972663
6397,345.9797982
6398,338.8129066
6399,319.7299046
6400,324.6259641
6401,351.0231494
6402,401.0590644
6403,423.4469352
6404,437.5364019
6405,437.9592392
6406,424.5825127
6407,399.5181608
6408,358.3279205
6409,311.0724304
6410,295.1758846
6411,298.3702474
6412,316.3245251
6413,306.8592133
6414,311.3682634
6415,307.746756
6416,308.7103588
6417,306.018929
6418,309.3461116
6419,308.300366
6420,311.4644255
6421,313.437289
6422,319.0185781
6423,321.7816877
6424,327.6543215
6425,326.5549366
6426,327.1595279
6427,320.0577865
6428,315.0236688
6429,302.206314
6430,292.1092624
6431,282.5413212
6432,273.761249
6433,268.3961209
6434,265.3316488
6435,262.2392497
6436,261.0465665
6437,259.9914533
6438,255.9409754
6439,252.4475926
6440,247.8959484
6441,244.1671463
6442,237.0117662
6443,232.5859665
6444,224.7662426
6445,220.862592
6446,214.2876125
6447,214.6520216
6448,211.1586394
6449,214.0381787
6450,213.2603965
6451,216.4872802
6452,215.9379154
6453,217.9386572
6454,217.7039831
6455,209.8026491
6456,190.9572506
6457,208.433504
6458,265.3176825
6459,305.8195946
6460,328.421723
6461,343.7674394
6462,339.8334284
6463,324.997345
6464,293.8815036
6465,247.6281466
6466,204.6964416
6467,205.673852
6468,231.4158159
6469,230.6216437
6470,232.9580223
6471,237.2244514
6472,238.4139423
6473,242.4053097
6474,246.2265078
6475,249.8915442
6476,254.0180946
6477,259.4057195
6478,267.9751343
6479,274.4583336
6480,284.3074964
6481,288.1892792
6482,293.3787368
6483,292.6171414
6484,288.7180304
6485,277.0310438
6486,267.6400743
6487,253.4635791
6488,247.4455583
6489,238.9007398
6490,238.0902014
6491,232.741177
6492,236.3548568
6493,234.3041961
6494,235.7197186
6495,231.9068138
6496,233.3013641
6497,230.0245854
6498,233.7361456
6499,231.7554113
6500,233.5089266
6501,230.7822444
6502,232.8830736
6503,229.7787603
6504,229.3178153
6505,226.5911199
6506,225.6313278
6507,223.249627
6508,224.0590544
6509,223.2041413
6510,222.7222108
6511,220.7763792
6512,217.308419
6513,212.8987136
6514,206.1556614
6515,201.7995687
6516,193.0448826
6517,172.7913529
6518,154.4049463
6519,189.9136169
6520,234.5621768
6521,260.8960361
6522,272.7520479
6523,274.0952389
6524,256.2425953
6525,230.5461679
6526,183.73316
6527,127.8292216
6528,88.61062848
6529,103.7463258
6530,108.7864541
6531,103.4000042
6532,99.23732126
6533,98.63641778
6534,93.59961316
6535,94.33668521
6536,89.81269132
6537,89.89242336
6538,88.15629514
6539,90.90734621
6540,91.38101969
6541,96.25094534
6542,98.52179236
6543,100.5968505
6544,98.54835495
6545,93.49285227
6546,82.49796943
6547,69.33990578
6548,56.04663068
6549,42.04008016
6550,30.82373323
6551,21.53745194
6552,17.12761691
6553,11.56393945
6554,11.24267505
6555,7.448224644
6556,6.607147686
6557,2.157676598
6558,3.68722135
6559,0.111866235
6560,0.902474592
6561,-3.52370199
6562,-1.551276548
6563,-4.956478942
6564,-2.219495633
6565,-5.839159324
6566,-3.610338485
6567,-6.77779935
6568,-3.826374684
6569,-6.74907596
6570,-3.161297772
6571,-3.564199787
6572,0.34292295
6573,1.009945319
6574,5.872772775
6575,6.500161421
6576,11.14153142
6577,11.29805008
6578,14.26109923
6579,16.27076066
6580,21.613747
6581,25.32970061
6582,31.46522182
6583,37.68933223
6584,42.93440489
6585,47.87178075
6586,50.62734482
6587,53.84677275
6588,55.56502243
6589,61.62360081
6590,51.14372373
6591,40.28620355
6592,64.31446801
6593,126.9464584
6594,161.9560852
6595,191.1754713
6596,201.2153802
6597,202.6352296
6598,184.7380896
6599,158.2628213
6600,108.7059761
6601,77.05124256
6602,84.02120047
6603,114.1100363
6604,112.6930399
6605,123.9193966
6606,128.0315226
6607,137.425704
6608,142.8269011
6609,153.1138371
6610,160.5336433
6611,173.9068458
6612,186.5410924
6613,202.1007812
6614,215.6464592
6615,231.9403637
6616,246.057141
6617,259.0480299
6618,267.5260981
6619,271.3188297
6620,272.4355936
6621,270.3635114
6622,269.2331679
6623,264.2123792
6624,263.3967262
6625,263.298996
6626,268.5602713
6627,271.6163735
6628,278.8216729
6629,282.6307287
6630,290.9548874
6631,293.6007285
6632,301.5426174
6633,303.3096982
6634,310.9695064
6635,312.8461387
6636,320.0584
6637,320.9396644
6638,326.5039088
6639,326.8024028
6640,330.5857567
6641,329.329465
6642,333.5137523
6643,333.6327591
6644,337.7354357
6645,338.6073656
6646,343.9058364
6647,344.794056
6648,349.7032684
6649,350.8105975
6650,353.7687535
6651,355.4634784
6652,358.794583
6653,360.8039985
6654,362.4753979
6655,365.0092819
6656,366.7179977
6657,369.2122632
6658,372.1167427
6659,376.1261382
6660,377.7858906
6661,381.5365514
6662,380.9934773
6663,383.0891023
6664,379.7791453
6665,382.2127457
6666,374.5298268
6667,362.1499135
6668,366.2525104
6669,386.2712111
6670,430.1663428
6671,457.4903957
6672,468.7631148
6673,474.6139555
6674,461.2806498
6675,443.6956319
6676,403.9660183
6677,366.4928406
6678,347.7749086
6679,348.0942352
6680,365.0639492
6681,363.045287
6682,363.1408488
6683,366.7725706
6684,366.4229048
6685,370.565057
6686,370.0801917
6687,374.4601302
6688,377.2060321
6689,382.7071798
6690,387.0078236
6691,393.7374193
6692,399.888856
6693,404.3783632
6694,406.2664266
6695,402.3573065
6696,396.8886739
6697,385.4900452
6698,376.1916024
6699,363.1379378
6700,354.1961473
6701,345.4035539
6702,342.7787733
6703,338.1586281
6704,339.3776825
6705,336.0862049
6706,338.722489
6707,335.568578
6708,338.3773408
6709,335.2536966
6710,335.4843583
6711,330.8595478
6712,332.7778553
6713,328.5609667
6714,329.0853467
6715,323.9803289
6716,324.4417445
6717,321.5325513
6718,321.819125
6719,318.5276315
6720,317.9237567
6721,315.6509027
6722,316.8698668
6723,313.4874481
6724,312.7670133
6725,309.4731805
6726,308.5895617
6727,308.610389
6728,306.8806331
6729,308.1089122
6730,307.9642327
6731,309.0526431
6732,306.3531779
6733,304.9916916
6734,300.7327715
6735,297.6626603
6736,295.7533734
6737,283.1611304
6738,262.2121946
6739,276.7831223
6740,325.1558657
6741,356.1486923
6742,371.0435847
6743,379.2811252
6744,368.7494668
6745,351.2341014
6746,318.0730419
6747,268.7977516
6748,226.9233981
6749,227.0560297
6750,245.7318098
6751,243.7781921
6752,243.2954268
6753,245.7613886
6754,244.2366855
6755,248.8564798
6756,249.3783704
6757,252.1403394
6758,253.8160929
